t,cuff_pressure,oscillation,ppg_quality
0.0,180.0,4.035120429990554e-45,0.9999999738306691
0.010003334444814937,179.95331777259085,2.5514777948170117e-05,0.9999999723870816
0.020006668889629875,179.90663554518173,5.13613643138707e-05,0.9999999708662705
0.030010003334444812,179.85995331777258,7.739497506811228e-05,0.9999999692642411
0.04001333777925975,179.81327109036346,0.00010346701084630991,0.9999999675767993
0.05001667222407469,179.7665888629543,0.0001294258567671971,0.999999965799543
0.060020006668889625,179.7199066355452,0.0001551177149589244,0.9999999639278507
0.07002334111370456,179.67322440813604,0.00018038746550504391,0.9999999619568725
0.0800266755585195,179.62654218072691,0.0002050795512753226,0.9999999598815181
0.09003001000333444,179.57985995331777,0.00022903888188081307,0.9999999576964462
0.10003334444814937,179.53317772590864,0.0002521117517908982,0.9999999553960522
0.11003667889296431,179.4864954984995,0.0002741467674739825,0.9999999529744561
0.12004001333777925,179.43981327109037,0.00029499577827438124,0.9999999504254887
0.1300433477825942,179.39313104368122,0.00031451480561744337,0.9999999477426793
0.14004668222740912,179.3464488162721,0.00033256496504395174,0.9999999449192405
0.15005001667222406,179.29976658886295,0.0003490133755148103,0.9999999419480536
0.160053351117039,179.25308436145383,0.00036373405039851647,0.9999999388216535
0.17005668556185394,179.20640213404468,0.00037660876455808363,0.9999999355322121
0.18006002000666887,179.15971990663556,0.0003875278919910406,0.9999999320715217
0.1900633544514838,179.1130376792264,0.0003963912085468259,0.9999999284309773
0.20006668889629875,179.06635545181726,0.00040310865434991556,0.999999924601558
0.2100700233411137,179.01967322440814,0.0004076010506949898,0.999999920573808
0.22007335778592862,178.972990996999,0.00040980076635165703,0.9999999163378166
0.23007669223074356,178.92630876958987,0.000409652328420569,0.9999999118831971
0.2400800266755585,178.87962654218072,0.0004071129731197063,0.999999907199065
0.25008336112037344,178.8329443147716,0.00040215313214791743,0.9999999022740148
0.2600866955651884,178.78626208736245,0.00039475685057211417,0.9999998970960973
0.2700900300100033,178.73957985995332,0.0003849221325129634,0.9999998916527933
0.28009336445481825,178.69289763254417,0.0003726612112607395,0.9999998859309891
0.2900966988996332,178.64621540513505,0.00035800074083597023,0.9999998799169482
0.3001000333444481,178.5995331777259,0.0003409819064174847,0.9999998735962841
0.31010336778926306,178.55285095031678,0.00032166045149088074,0.9999998669539302
0.320106702234078,178.50616872290763,0.0003001066200217196,0.9999998599741097
0.33011003667889294,178.4594864954985,0.00027640501242710835,0.9999998526403032
0.3401133711237079,178.41280426808936,0.00025065435460479475,0.9999998449352155
0.3501167055685228,178.36612204068024,0.00022296717977744257,0.999999836840741
0.36012004001333775,178.3194398132711,0.0001934694234190969,0.999999828337927
0.3701233744581527,178.27275758586197,0.00016229993204778487,0.9999998194069366
0.3801267089029676,178.22607535845282,0.0001296098871901512,0.9999998100270086
0.39013004334778256,178.17939313104367,9.556214634771792e-05,0.9999998001764171
0.4001333777925975,178.13271090363455,6.033050331696039e-05,0.9999997898324284
0.41013671223741244,178.0860286762254,2.409887073360184e-05,0.9999997789712568
0.4201400466822274,178.03934644881627,-1.2939611777665083e-05,0.9999997675680176
0.4301433811270423,177.99266422140713,-5.058353996663133e-05,0.9999997555966792
0.44014671557185725,177.945981993998,-8.862427346638152e-05,0.9999997430300129
0.4501500500166722,177.89929976658885,-0.00012684702561010006,0.9999997298395403
0.4601533844614871,177.85261753917973,-0.00016503200926893462,0.9999997159954783
0.47015671890630206,177.80593531177058,-0.00020295563299741436,0.9999997014666829
0.480160053351117,177.75925308436146,-0.0002403917413722476,0.9999996862205897
0.49016338779593194,177.7125708569523,-0.00027711289303849573,0.9999996702231523
0.5001667222407469,177.6658886295432,-0.00031289166963668056,0.9999996534387782
0.5101700566855618,177.61920640213404,-0.00034750200847817337,0.9999996358302619
0.5201733911303767,177.57252417472492,-0.00038072055156633603,0.9999996173587157
0.5301767255751917,177.52584194731577,-0.0004123280033299794,0.9999995979834972
0.5401800600200066,177.47915971990665,-0.0004421104892454315,0.9999995776621343
0.5501833944648216,177.4324774924975,-0.0004698609073761458,0.9999995563502466
0.5601867289096365,177.38579526508838,-0.0004953802647555701,0.9999995340014644
0.5701900633544514,177.33911303767923,-0.0005184789904817663,0.9999995105673436
0.5801933977992664,177.29243081027008,-0.0005389782173817381,0.9999994859972781
0.5901967322440813,177.24574858286095,-0.00055671102414098,0.9999994602384078
0.6002000666888962,177.1990663554518,-0.0005715236298796325,0.9999994332355238
0.6102034011337112,177.15238412804268,-0.0005832765332913831,0.9999994049309692
0.6202067355785261,177.10570190063353,-0.0005918455886451223,0.9999993752645358
0.6302100700233411,177.0590196732244,-0.0005971230111816674,0.9999993441733579
0.640213404468156,177.01233744581526,-0.0005990183047188049,0.9999993115918004
0.6502167389129709,176.96565521840614,-0.0005974591046059032,0.9999992774513439
0.6602200733577859,176.918972990997,-0.0005923919295441398,0.9999992416804637
0.6702234078026008,176.87229076358787,-0.0005837828362077549,0.999999204204506
0.6802267422474157,176.82560853617872,-0.0005716179710648907,0.9999991649455577
0.6902300766922307,176.7789263087696,-0.0005559040143006564,0.9999991238223119
0.7002334111370456,176.73224408136045,-0.0005366685112887179,0.999999080749928
0.7102367455818606,176.68556185395133,-0.0005139600876375809,0.9999990356398867
0.7202400800266755,176.63887962654218,-0.0004878485444518984,0.9999989883998383
0.7302434144714904,176.59219739913306,-0.0004584248310937171,0.999998938933447
0.7402467489163054,176.5455151717239,-0.0004258008934011814,0.9999988871402282
0.7502500833611203,176.49883294431478,-0.00039010939601850225,0.9999988329153792
0.7602534178059352,176.45215071690563,-0.0003515033182081455,0.9999987761496036
0.7702567522507502,176.4054684894965,-0.0003101554232494827,0.9999987167289308
0.7802600866955651,176.35878626208736,-0.00026625760227437224,0.9999986545345256
0.7902634211403801,176.3121040346782,-0.00022002009414430717,0.9999985894424936
0.800266755585195,176.2654218072691,-0.0001716705837323366,0.9999985213236773
0.8102700900300099,176.21873957985994,-0.00012145318173086128,0.9999984500434449
0.8202734244748249,176.17205735245082,-6.96272898596383e-05,0.9999983754614725
0.8302767589196398,176.12537512504167,-1.6466356092083928e-05,0.9999982974315167
0.8402800933644547,176.07869289763255,3.774347475223803e-05,0.9999982158011791
0.8502834278092697,176.0320106702234,9.270480898972151e-05,0.9999981304116626
0.8602867622540846,175.98532844281428,0.0001481105438819872,0.9999980410975186
0.8702900966988996,175.93864621540513,0.00020364549186411345,0.999997947686384
0.8802934311437145,175.891963987996,0.00025898808115484183,0.9999978499987098
0.8902967655885294,175.84528176058686,0.00031381212411914217,0.9999977478474793
0.9003001000333444,175.79859953317774,0.00036778864420122917,0.9999976410379157
0.9103034344781593,175.7519173057686,0.00042058775173819897,0.9999975293671793
0.9203067689229742,175.70523507835946,0.00047188055850454647,0.9999974126240542
0.9303101033677892,175.65855285095031,0.0005213411204297122,0.9999972905886229
0.9403134378126041,175.6118706235412,0.0005686483975775358,0.9999971630319296
0.9503167722574191,175.56518839613204,0.0006134882201815036,0.999997029715632
0.960320106702234,175.51850616872292,0.0006555552492952193,0.9999968903916391
0.9703234411470489,175.47182394131377,0.000694554920446741,0.9999967448017381
0.9803267755918639,175.42514171390462,0.0007302053585796323,0.9999965926772061
0.9903301100366788,175.3784594864955,0.0007622392525254091,0.9999964337384097
1.0003334444814937,175.33177725908635,0.0007904056772821582,0.9999962676943898
1.0103367789263087,175.28509503167723,0.0008144718524740349,0.999996094242431
1.0203401133711236,175.23841280426808,0.0008342248255365913,0.9999959130676173
1.0303434478159386,175.19173057685896,0.0008494730684134261,0.9999957238423718
1.0403467822607535,175.1450483494498,0.0008600479768608851,0.99999552622598
1.0503501167055684,175.0983661220407,0.0008658052618380697,0.9999953198640967
1.0603534511503834,175.05168389463154,0.0008666262229091854,0.9999951043882365
1.0703567855951983,175.00500166722242,0.0008624188941017557,0.9999948794152456
1.0803601200400132,174.95831943981327,0.0008531190532466678,0.9999946445467567
1.0903634544848282,174.91163721240414,0.0008386910864710636,0.9999943993686242
1.1003667889296431,174.864954984995,0.0008191287002210685,0.999994143450341
1.110370123374458,174.81827275758587,0.000794455473954082,0.9999938763444349
1.120373457819273,174.77159053017672,0.0007647252474575143,0.9999935975858449
1.130376792264088,174.7249083027676,0.0007300223376172588,0.9999933066912762
1.1403801267089029,174.67822607535845,0.0006904615803720322,0.9999930031585336
1.1503834611537178,174.63154384794933,0.0006461881945428632,0.9999926864658331
1.1603867955985327,174.58486162054018,0.0005973774652171407,0.9999923560710894
1.1703901300433477,174.53817939313103,0.0005442342453870167,0.9999920114111812
1.1803934644881626,174.4914971657219,0.0004869922755884348,0.9999916519011904
1.1903967989329776,174.44481493831276,0.00042591332235291453,0.9999912769336181
1.2004001333777925,174.39813271090364,0.00036128613736399274,0.9999908858775729
1.2104034678226074,174.3514504834945,0.0002934252402978526,0.9999904780779346
1.2204068022674224,174.30476825608537,0.00022266952941638968,0.9999900528544885
1.2304101367122373,174.25808602867622,0.00014938072506500932,0.9999896095010334
1.2404134711570522,174.2114038012671,7.39416522997032e-05,0.9999891472844598
1.2504168056018672,174.16472157385795,-3.2456300775378816e-06,0.9999886654437978
1.2604201400466821,174.11803934644882,-8.176184576617956e-05,0.9999881631892362
1.270423474491497,174.07135711903967,-0.000161172653189811,0.999987639701108
1.280426808936312,174.02467489163055,-0.00024103092342516008,0.9999870941288451
1.290430143381127,173.9779926642214,-0.00032087913265105566,0.999986525589899
1.3004334778259419,173.93131043681228,-0.0004002518570634503,0.9999859331686279
1.3104368122707568,173.88462820940313,-0.00047867835739115244,0.999985315915148
1.3204401467155717,173.837945981994,-0.0005556852393970008,0.9999846728441496
1.3304434811603867,173.79126375458486,-0.0006307991760668188,0.999984002933675
1.3404468156052016,173.74458152717574,-0.0007035496765781231,0.9999833051238595
1.3504501500500166,173.6978992997666,-0.0007734718866078525,0.9999825783156328
1.3604534844948315,173.65121707235744,-0.0008401094040870389,0.9999818213693797
1.3704568189396464,173.60453484494832,-0.0009030170941451616,0.9999810331035613
1.3804601533844614,173.55785261753917,-0.000961763886710926,0.9999802122932916
1.3904634878292763,173.51117039013005,-0.0010159355400528895,0.9999793576688722
1.4004668222740912,173.4644881627209,-0.001065137353455547,0.9999784679142824
1.4104701567189062,173.41780593531178,-0.0011089968122356723,0.9999775416656229
1.4204734911637211,173.37112370790263,-0.0011471661484125713,0.9999765775095132
1.430476825608536,173.3244414804935,-0.0011793248005542343,0.9999755739814402
1.440480160053351,173.27775925308435,-0.0012051817566310216,0.9999745295640583
1.450483494498166,173.23107702567523,-0.001224477764117956,0.9999734426854382
1.4604868289429809,173.18439479826608,-0.0012369873920967777,0.9999723117172642
1.4704901633877958,173.13771257085696,-0.0012425209307166526,0.9999711349729778
1.4804934978326107,173.0910303434478,-0.0012409261140777239,0.999969910705868
1.4904968322774257,173.0443481160387,-0.0012320896534002209,0.9999686371071037
1.5005001667222406,172.99766588862954,-0.0012159385682322466,0.9999673123037108
1.5105035011670556,172.95098366122042,-0.0011924413044263513,0.9999659343564894
1.5205068356118705,172.90430143381127,-0.0011616086286757327,0.9999645012578718
1.5305101700566854,172.85761920640215,-0.0011234942905392477,0.999963010929718
1.5405135045015004,172.810936978993,-0.0010781954440962028,0.9999614612210487
1.5505168389463153,172.76425475158385,-0.0010258528226500373,0.9999598499057143
1.5605201733911302,172.71757252417473,-0.0009666506612392923,0.9999581746799967
1.5705235078359452,172.67089029676558,-0.000900816363106711,0.9999564331601442
1.5805268422807601,172.62420806935646,-0.0008286199077164433,0.9999546228798374
1.590530176725575,172.5775258419473,-0.0007503729993871505,0.9999527412875836
1.60053351117039,172.53084361453818,-0.0006664279571169747,0.9999507857440395
1.610536845615205,172.48416138712903,-0.0005771763477071791,0.9999487535192594
1.6205401800600199,172.4374791597199,-0.000483047365835302,0.9999466417898678
1.6305435145048348,172.39079693231076,-0.0003845059662777117,0.9999444476361545
1.6405468489496497,172.34411470490164,-0.00028205075502600265,0.9999421680390908
1.6505501833944647,172.2974324774925,-0.00017621164757285857,0.9999397998772641
1.6605535178392796,172.25075025008337,-6.754730415122623e-05,0.9999373399237306
1.6705568522840946,172.20406802267422,4.335764681291505e-05,0.9999347848427831
1.6805601867289095,172.1573857952651,0.00015589558433907222,0.999932131186632
1.6905635211737244,172.11070356785595,0.0002694390555422495,0.9999293753919998
1.7005668556185394,172.06402134044683,0.0003833441058896764,0.9999265137766228
1.7105701900633543,172.01733911303768,0.0004969537624026299,0.9999235425356636
1.7205735245081692,171.97065688562856,0.0006096016519618484,0.9999204577380285
1.7305768589529842,171.9239746582194,0.0007206157357801887,0.9999172553225887
1.7405801933977991,171.87729243081026,0.0008293221401042654,0.9999139310943043
1.750583527842614,171.83061020340114,0.0009350490623055833,0.9999104807202489
1.760586862287429,171.783927975992,0.0010371307307275993,0.9999068997255322
1.770590196732244,171.73724574858286,0.0011349113959752799,0.9999031834891174
1.7805935311770589,171.69056352117371,0.0012277493307736895,0.9998993272395362
1.7905968656218738,171.6438812937646,0.001315020815087094,0.9998953260504917
1.8006002000666887,171.59719906635544,0.0013961240828852767,0.999891174836355
1.8106035345115037,171.55051683894632,0.001470483206772286,0.9998868683475473
1.8206068689563186,171.50383461153717,0.0015375518966590591,0.9998824011658092
1.8306102034011336,171.45715238412805,0.0015968171887664742,0.9998777676993531
1.8406135378459485,171.4104701567189,0.0016478030014925277,0.9998729621778972
1.8506168722907634,171.36378792930978,0.0016900735350659595,0.9998679786475794
1.8606202067355784,171.31710570190063,0.0017232364924402725,0.999862810965747
1.8706235411803933,171.2704234744915,0.0017469460995545114,0.9998574527956235
1.8806268756252082,171.22374124708236,0.001760905903900339,0.9998518976008466
1.8906302100700232,171.17705901967324,0.0017648713312846624,0.9998461386398767
1.9006335445148381,171.1303767922641,0.0017586519817620104,0.9998401689602754
1.910636878959653,171.08369456485497,0.0017421136469246386,0.9998339813928482
1.920640213404468,171.03701233744582,0.0017151800320783727,0.9998275685456526
1.930643547849283,170.99033011003667,0.0016778341682902478,0.9998209227978664
1.9406468822940979,170.94364788262754,0.0016301195008656454,0.9998140362935167
1.9506502167389128,170.8969656552184,0.0015721406424888085,0.9998069009350657
1.9606535511837277,170.85028342780927,0.0015040637810340794,0.9997995083768504
1.9706568856285427,170.80360120040012,0.0014261167339171064,0.9997918500183759
1.9806602200733576,170.756918972991,0.0013385886427954082,0.9997839169974588
1.9906635545181726,170.71023674558185,0.0012418293044370117,0.9997757001832188
2.0006668889629875,170.66355451817273,0.0011362481356424253,0.9997671901689154
2.0106702234078027,170.61687229076358,0.0010223127722191556,0.999758377264629
2.0206735578526174,170.57019006335446,0.0009005473041561936,0.9997492514897827
2.030676892297432,170.5235078359453,0.0007715301513175605,0.9997398025655034
2.0406802267422472,170.4768256085362,0.0006358915861558052,0.9997300199068202
2.0506835611870624,170.43014338112704,0.0004943109121262334,0.999719892614696
2.060686895631877,170.38346115371792,0.0003475133086470735,0.9997094094678929
2.070690230076692,170.33677892630877,0.00019626635558757217,0.9996985589146675
2.080693564521507,170.29009669889965,4.1376252361357314e-05,0.9996873290642939
2.090696898966322,170.2434144714905,-0.0001163162512562784,0.9996757076784124
2.100700233411137,170.19673224408137,-0.0002759401934944165,0.9996636821622029
2.1107035678559516,170.15005001667222,-0.0004365989871485206,0.9996512395553787
2.1207069023007667,170.10336778926307,-0.0005973752315490751,0.9996383665230012
2.130710236745582,170.05668556185395,-0.0007573357254497426,0.9996250493461106
2.1407135711903966,170.0100033344448,-0.0009155366547664415,0.9996112739121741
2.1507169056352113,169.96332110703568,-0.0010710289276442365,0.9995970257053453
2.1607202400800265,169.91663887962653,-0.0012228636280130923,0.9995822897965372
2.1707235745248417,169.8699566522174,-0.0013700975576248092,0.9995670508333035
2.1807269089696564,169.82327442480826,-0.0015117988355530694,0.9995512930295288
2.190730243414471,169.77659219739914,-0.0016470525232930395,0.9995350001549239
2.2007335778592862,169.72990996999,-0.0017749662429256186,0.9995181555243253
2.2107369123041014,169.68322774258087,-0.0018946757553201306,0.9995007419867985
2.220740246748916,169.63654551517172,-0.0020053504650443758,0.9994827419145402
2.230743581193731,169.5898632877626,-0.0021061988185364687,0.9994641371915816
2.240746915638546,169.54318106035345,-0.002196473562174211,0.9994449092022875
2.250750250083361,169.49649883294433,-0.0022754768271551497,0.9994250388196536
2.260753584528176,169.44981660553518,-0.002342565008578548,0.9994045063933968
2.2707569189729906,169.40313437812605,-0.002397153406796326,0.9993832917378402
2.2807602534178057,169.3564521507169,-0.0024387205999762164,0.999361374119589
2.290763587862621,169.30976992330778,-0.002466812517891928,0.9993387322449989
2.3007669223074356,169.26308769589863,-0.0024810461882216915,0.9993153442474325
2.3107702567522503,169.21640546848948,-0.002481113128091089,0.9992911876743066
2.3207735911970655,169.16972324108036,-0.002466782355235916,0.999266239473925
2.3307769256418807,169.1230410136712,-0.002437902994976758,0.9992404759821003
2.3407802600866954,169.0763587862621,-0.002394406461182546,0.9992138729085607
2.35078359453151,169.02967655885294,-0.0023363081915469992,0.999186405323143
2.3607869289763252,168.98299433144382,-0.002263708919797689,0.9991580476417699
2.3707902634211404,168.93631210403467,-0.002176795469893843,0.9991287736122129
2.380793597865955,168.88962987662555,-0.0020758410598312495,0.9990985562996384
2.39079693231077,168.8429476492164,-0.0019612051053504694,0.9990673680719382
2.400800266755585,168.79626542180728,-0.0018333325166211066,0.999035180584844
2.4108036012004,168.74958319439813,-0.001692752483838379,0.9990019647668257
2.420806935645215,168.702900966989,-0.0015400767506001576,0.9989676908037732
2.4308102700900296,168.65621873957986,-0.0013759973769203084,0.998932328123464
2.4408136045348447,168.60953651217073,-0.0012012839967568507,0.9988958453798134
2.45081693897966,168.56285428476158,-0.0010167805779781314,0.9988582104369118
2.4608202734244746,168.51617205735246,-0.000823401695735592,0.9988193903528473
2.4708236078692893,168.4694898299433,-0.0006221283332423618,0.9987793513633146
2.4808269423141045,168.4228076025342,-0.0004140032269541545,0.9987380588650131
2.4908302767589197,168.37612537512504,-0.00020012577609293392,0.9986954773988325
2.5008336112037344,168.3294431477159,1.8353460669508886e-05,0.9986515706328294
2.510836945648549,168.28276092030677,0.0002402386557659586,0.9986063013449963
2.5208402800933642,168.23607869289762,0.00046429496224145825,0.998559631405823
2.5308436145381794,168.1893964654885,0.0006892550913715694,0.9985115217606542
2.540846948982994,168.14271423807935,0.0009138261851342766,0.9984619324118438
2.550850283427809,168.09603201067023,0.0011366969480111405,0.9984108224007092
2.560853617872624,168.04934978326108,0.001356545000514849,0.998358149789288
2.570856952317439,168.00266755585196,0.001572044414930012,0.9983038716418982
2.580860286762254,167.9559853284428,0.0017818733920654851,0.9982479440065064
2.5908636212070686,167.9093031010337,0.0019847220363203356,0.9981903218959071
2.6008669556518837,167.86262087362454,0.002179300185129391,0.9981309592687144
2.610870290096699,167.81593864621541,0.0023643452478087465,0.9980698090101715
2.6208736245415136,167.76925641880626,0.002538630008081044,0.998006822912781
2.6308769589863283,167.72257419139714,0.0027009703440222968,0.9979419516567595
2.6408802934311435,167.675891963988,0.0028502328189373765,0.997875144790321
2.6508836278759587,167.62920973657887,0.0029853420966859893,0.9978063507097938
2.6608869623207734,167.58252750916972,0.003105288135270275,0.9977355166395747
2.670890296765588,167.5358452817606,0.0032091331130644795,0.9976625886119258
2.6808936312104032,167.48916305435145,0.0032960180429224342,0.997587511446619
2.6908969656552184,167.4424808269423,0.0033651690305037604,0.9975102287304333
2.700900300100033,167.39579859953318,0.003415903134561403,0.9974306827965111
2.710903634544848,167.34911637212406,0.0034476337886197935,0.997348814703579
2.720906968989663,167.3024341447149,0.0034598757453670227,0.9972645642150373
2.730910303434478,167.25575191730576,0.0034522495072884145,0.9971778697779299
2.740913637879293,167.20906968989664,0.0034244852095318104,0.9970886685017946
2.7509169723241076,167.1623874624875,0.00337642592363942,0.9969968961374058
2.7609203067689227,167.11570523507837,0.0033080303536675393,0.9969024870554147
2.770923641213738,167.06902300766922,0.0032193748993672097,0.9968053742248946
2.7809269756585526,167.0223407802601,0.003110655064402896,0.9967054891917992
2.7909303101033673,166.97565855285094,0.002982186191138417,0.9966027620573437
2.8009336445481825,166.92897632544182,0.002834403506891362,0.9964971214563132
2.8109369789929977,166.88229409803267,0.0026678614708847796,0.9963884945353124
2.8209403134378124,166.83561187062355,0.002483232414416409,0.9962768069309608
2.830943647882627,166.7889296432144,0.0022813044716553936,0.996161982748045
2.8409469823274422,166.74224741580528,0.0020629788010864424,0.9960439445376391
2.8509503167722574,166.69556518839613,0.0018292661039550262,0.9959226132752
2.860953651217072,166.648882960987,0.0015812824484311445,0.9957979083386503
2.870956985661887,166.60220073357786,0.001320244412480688,0.9956697474864585
2.880960320106702,166.5555185061687,0.0010474635649309195,0.995538046835728
2.890963654551517,166.5088362787596,0.0007643403048669889,0.9954027208403056
2.900966988996332,166.46215405135047,0.00047235708609422595,0.9952636822689213
2.9109703234411466,166.41547182394132,0.00017307105775030374,0.9951208421833719
2.9209736578859617,166.36878959653217,-0.00013189384732987443,0.9949741099167602
2.930976992330777,166.32210736912305,-0.0004408553369748875,0.9948233930518012
2.9409803267755916,166.2754251417139,-0.000752081653796636,0.9946685973992125
2.9509836612204063,166.22874291430477,-0.0010638009015446629,0.9945096269761962
2.9609869956652215,166.18206068689562,-0.0013742107439184876,0.9943463839850307
2.9709903301100367,166.1353784594865,-0.0016814884386848698,0.9941787687917851
2.9809936645548514,166.08869623207735,-0.001983801141222655,0.9940066799051693
2.990996998999666,166.04201400466823,-0.0022793164284106156,0.993830013955536
3.0010003334444812,165.99533177725908,-0.002566212986994175,0.9936486656740496
3.0110036678892964,165.94864954984996,-0.0028426913968232596,0.9934625278720356
3.021007002334111,165.9019673224408,-0.0031069849545724286,0.9932714914205293
3.031010336778926,165.8552850950317,-0.0033573704768222073,0.993075445230037
3.041013671223741,165.80860286762254,-0.0035921790165913178,0.992874276230528
3.051017005668556,165.76192064021342,-0.0038098064201353716,0.9926678693516736
3.061020340113371,165.71523841280427,-0.004008723677324995,0.9924561075033494
3.0710236745581856,165.66855618539512,-0.004187486993112101,0.9922388715564201
3.0810270090030007,165.621873957986,-0.004344747514533438,0.9920160403238238
3.091030343447816,165.57519173057685,-0.004479260639945874,0.9917874905419729
3.1010336778926306,165.52850950316773,-0.004589894895410557,0.9915530968524923
3.1110370123374453,165.48182727575858,-0.0046756402565251995,0.9913127317843115
3.1210403467822605,165.43514504834945,-0.004735615894689475,0.9910662657361317
3.1310436812270757,165.3884628209403,-0.004769077301744415,0.9908135669592858
3.1410470156718904,165.34178059353118,-0.0047754227179867895,0.9905545015410124
3.151050350116705,165.29509836612203,-0.004754198835614176,0.9902889333881632
3.1610536845615202,165.2484161387129,-0.0047051057093233095,0.9900167242113638
3.1710570190063354,165.20173391130376,-0.004628000837176176,0.9897377335096504
3.18106035345115,165.15505168389464,-0.004522902436227403,0.9894518185556024
3.191063687895965,165.1083694564855,-0.00438999174548627,0.9891588343809904
3.20106702234078,165.06168722907637,-0.004229614530689125,0.9888586337629659
3.211070356785595,165.01500500166722,-0.004042281503690631,0.9885510672108095
3.22107369123041,164.9683227742581,-0.0038286679433289653,0.9882359829532644
3.2310770256752246,164.92164054684895,-0.0035896121958905692,0.9879132269264733
3.2410803601200397,164.87495831943983,-0.003326113318840452,0.9875826427625458
3.251083694564855,164.82827609203068,-0.0030393277692584574,0.9872440717787762
3.2610870290096696,164.78159386462153,-0.0027305649114593624,0.986897352967536
3.2710903634544843,164.7349116372124,-0.0024012818194192767,0.986542322986866
3.2810936978992995,164.68822940980328,-0.002053077147680522,0.9861788161517885
3.2910970323441147,164.64154718239413,-0.0016876835518531818,0.9858066644263677
3.3011003667889294,164.59486495498498,-0.0013069604213947368,0.9854256974165388
3.311103701233744,164.54818272757586,-0.0009128839932981045,0.9850357423637334
3.3211070356785592,164.5015005001667,-0.0005075381151540002,0.9846366241393216
3.3311103701233744,164.4548182727576,-9.310411720748422e-05,0.9842281652399022
3.341113704568189,164.40813604534844,0.00032815110453820735,0.9838101857834579
3.351117039013004,164.36145381793932,0.0007538869605312445,0.9833825035064073
3.361120373457819,164.31477159053017,0.0011817005523534379,0.9829449337615755
3.371123707902634,164.26808936312105,0.0016091414186795014,0.9824972895171098
3.381127042347449,164.2214071357119,0.0020337249681022557,0.9820393813563648
3.3911303767922636,164.17472490830278,0.0024529432578430234,0.9815710174787848
3.4011337112370787,164.12804268089363,0.0028642846464883077,0.9810920037018072
3.411137045681894,164.0813604534845,0.0032652425731697523,0.9806021434638125
3.4211403801267086,164.03467822607536,0.003653335743851836,0.9801012378281495
3.4311437145715233,163.98799599866624,0.004026119861420067,0.9795890854882573
3.4411470490163385,163.9413137712571,0.0043811994597440646,0.9790654827739143
3.4511503834611537,163.89463154384794,0.004716251798073236,0.9785302236586366
3.4611537179059684,163.84794931643881,0.005029031317322639,0.9779830997682541
3.471157052350783,163.8012670890297,0.005317388014398337,0.9774239003906894
3.4811603867955982,163.75458486162054,0.005579284895113693,0.9768524124869641
3.4911637212404134,163.7079026342114,0.005812806083246013,0.9762684207034608
3.501167055685228,163.66122040680227,0.006016172508475995,0.9756717073854643
3.511170390130043,163.61453817939312,0.006187750591286274,0.9750620525920087
3.521173724574858,163.567855951984,0.006326075439232573,0.9744392341120552
3.531177059019673,163.52117372457485,0.006429843212235364,0.973803027482027
3.541180393464488,163.47449149716573,0.006497940672113641,0.9731532060047248
3.5511837279093026,163.42780926975658,0.006529430345143908,0.9724895407696499
3.5611870623541177,163.38112704234746,0.006523594556943734,0.9718118006747583
3.571190396798933,163.3344448149383,0.006479913276404762,0.9711197524496705
3.5811937312437476,163.2877625875292,0.0063980643502897635,0.9704131606803623
3.5911970656885623,163.24108036012004,0.006277966925300269,0.969691787835359
3.6012004001333775,163.19439813271092,0.006119741195722952,0.9689553942934589
3.6112037345781927,163.14771590530177,0.005923746327125981,0.9682037383730071
3.6212070690230074,163.10103367789264,0.005690539744298984,0.9674365763627457
3.631210403467822,163.0543514504835,0.005420947062956518,0.9666536625542599
3.6412137379126372,163.00766922307434,0.005115960860512696,0.9658547492760448
3.6512170723574524,162.96098699566522,0.004776873231053324,0.9650395869292142
3.661220406802267,162.9143047682561,0.004405128500481306,0.9642079240248729
3.671223741247082,162.86762254084695,0.004002346511765833,0.9633595072231723
3.681227075691897,162.8209403134378,0.003570466844322241,0.9624940813740729
3.691230410136712,162.77425808602868,0.0031115367858610007,0.9616113895598308
3.701233744581527,162.72757585861953,0.0026278599675149763,0.9607111731392293
3.7112370790263416,162.6808936312104,0.0021218089186717487,0.9597931717935745
3.7212404134711567,162.63421140380126,0.0015959984804687281,0.9588571235744725
3.731243747915972,162.58752917639214,0.0010532778584200462,0.9579027649534076
3.7412470823607866,162.540846948983,0.0004964250543005646,0.956929830873137
3.7512504168056013,162.49416472157387,-7.146313340719652e-05,0.9559380548009189
3.7612537512504165,162.44748249416472,-0.0006473460252704426,0.9549271687835904
3.7712570856952317,162.4008002667556,-0.0012277956475193082,0.9538969035045111
3.7812604201400464,162.35411803934645,-0.0018098056681028914,0.9528469883423839
3.791263754584861,162.30743581193732,-0.002389848445554635,0.9517771514319693
3.8012670890296762,162.26075358452817,-0.002964560081148663,0.9506871197267046
3.8112704234744914,162.21407135711905,-0.0035304905262540675,0.9495766190632416
3.821273757919306,162.1673891297099,-0.004084200066153419,0.9484453742279113
3.831277092364121,162.12070690230078,-0.004622553897779053,0.9472931090251272
3.841280426808936,162.07402467489163,-0.005141791842394019,0.9461195463477386
3.851283761253751,162.02734244748248,-0.0056390423375742675,0.944924408249338
3.861287095698566,161.98066022007336,-0.00611076017140634,0.9437074160185336
3.8712904301433806,161.9339779926642,-0.006554170755164267,0.942468290255192
3.8812937645881957,161.8872957652551,-0.006966198823507736,0.9412067509486559
3.891297099033011,161.84061353784594,-0.00734415488142676,0.939922517557944
3.9013004334778256,161.79393131043682,-0.0076842889443728786,0.9386153090939316
3.9113037679226403,161.74724908302767,-0.007985233218025353,0.93728484420352
3.9213071023674555,161.70056685561855,-0.008244647976003066,0.9359308412557898
3.9313104368122707,161.6538846282094,-0.008459833469006939,0.9345530184301452
3.9413137712570854,161.60720240080028,-0.00862970756124267,0.9331510938064393
3.9513171057019,161.56052017339113,-0.008751736421882931,0.931724785457088
3.9613204401467152,161.513837945982,-0.008825221745980537,0.9302738115411596
3.9713237745915304,161.46715571857285,-0.008847201891802407,0.9287978904004427
3.981327109036345,161.42047349116373,-0.008820216894996121,0.9272967406574819
3.99133044348116,161.37379126375458,-0.008741608380591372,0.9257700813155754
4.001333777925975,161.32710903634546,-0.00861157248870034,0.9242176318607264
4.01133711237079,161.2804268089363,-0.008428189703843033,0.9226391123655381
4.021340446815605,161.23374458152716,-0.008192738295738853,0.9210342435950399
4.03134378126042,161.18706235411804,-0.007909108489131272,0.9194027471144338
4.041347115705235,161.14038012670892,-0.007576182317082046,0.9177443453987455
4.05135045015005,161.09369789929977,-0.007190063527554728,0.9160587619443665
4.061353784594864,161.04701567189062,-0.006759658655990176,0.9143457213824691
4.071357119039679,161.0003334444815,-0.0062847867316212,0.9126049495942741
4.0813604534844945,160.95365121707235,-0.005766373171523348,0.9108361738281574
4.09136378792931,160.90696898966323,-0.005205903681138295,0.9090391228185674
4.101367122374125,160.86028676225408,-0.004609706136517165,0.9072135269067336
4.111370456818939,160.81360453484496,-0.003976096659179009,0.9053591181631442
4.121373791263754,160.7669223074358,-0.0033163608787734017,0.9034756305117618
4.131377125708569,160.72024008002668,-0.0026144806701834905,0.9015627998559553
4.141380460153384,160.67355785261753,-0.001900780900398642,0.8996203642061155
4.151383794598199,160.6268756252084,-0.0011522129157120623,0.8976480638089244
4.161387129043014,160.58019339779926,-0.00041623246425687556,0.8956456412782494
4.171390463487829,160.53351117039014,0.0003693513513956026,0.8936128417276239
4.181393797932644,160.486828942981,0.0011507278385567594,0.8915494129042827
4.191397132377459,160.44014671557187,0.001924750962483347,0.8894551053247148
4.201400466822274,160.39346448816272,0.002714701765372961,0.8873296724116938
4.211403801267089,160.34678226075357,0.003496881057285051,0.8851728706327479
4.221407135711903,160.30010003334445,0.00426561559863077,0.8829844596400267
4.231410470156718,160.25341780593533,0.005008832148704353,0.8807642024115212
4.2414138046015335,160.20673557852618,0.005751164419254789,0.8785118653935946
4.251417139046349,160.16005335111703,0.006483416423673011,0.8762272186447733
4.261420473491164,160.1133711237079,0.00717720925446829,0.8739100359807548
4.271423807935978,160.06668889629879,0.007813433092872283,0.8715600951205792
4.281427142380793,160.02000666888964,0.00843325449546901,0.8691771778339134
4.291430476825608,159.9733244414805,0.00901641918835366,0.8667610700893988
4.301433811270423,159.92664221407136,0.00957507328664253,0.8643115622040032
4.311437145715238,159.87995998666221,0.010005567668912228,0.861828448993321
4.321440480160053,159.8332777592531,0.010430480757418016,0.8593115299227705
4.331443814604868,159.78659553184394,0.010861241559144811,0.8567606092596194
4.341447149049683,159.73991330443482,0.011137714371952611,0.8541754962257855
4.351450483494498,159.69323107702567,0.011421554766777565,0.8515560051513457
4.361453817939313,159.64654884961655,0.011655301897078309,0.8489019556286905
4.371457152384128,159.5998666222074,0.011816345893284601,0.8462131726672608
4.381460486828942,159.55318439479828,0.01179602994798924,0.8434894868487951
4.391463821273757,159.50650216738913,0.011921642357965405,0.8407307344830224
4.4014671557185725,159.45981993997998,0.011668768310113752,0.8379367577637311
4.411470490163388,159.41313771257086,0.011716304480755963,0.835107404925139
4.421473824608203,159.3664554851617,0.011321386623389582,0.8322425303984946
4.431477159053017,159.3197732577526,0.0110656228192298,0.8293419949688338
4.441480493497832,159.27309103034344,0.010930975039990277,0.8264056659318162
4.451483827942647,159.22640880293432,0.010399026019578731,0.8234334172505671
4.461487162387462,159.17972657552517,0.009865904699206935,0.8204251297124404
4.471490496832277,159.13304434811604,0.009370980962169775,0.817380691085628
4.481493831277092,159.0863621207069,0.008919864512595368,0.8142999962755346
4.491497165721907,159.03967989329777,0.008171272204019139,0.8111829474808312
4.501500500166722,158.99299766588862,0.007460068290712007,0.8080294543491087
4.511503834611537,158.9463154384795,0.0069405634202437975,0.8048394341320444
4.521507169056352,158.89963321107035,0.00569833919944009,0.8016128118399948
4.531510503501167,158.85295098366123,0.004885127969931896,0.7983495203959321
4.541513837945981,158.80626875625208,0.003952196491092917,0.7950495007886309
4.551517172390796,158.75958652884296,0.0035699457611935467,0.7917127022250187
4.5615205068356115,158.7129043014338,0.0025721018152653342,0.7883390822816022
4.571523841280427,158.6662220740247,0.0017331930614402208,0.784928607054875
4.581527175725242,158.61953984661554,0.00017037944256939806,0.7814812513106163
4.591530510170056,158.57285761920642,-0.0009257196813800896,0.7779969986319892
4.601533844614871,158.52617539179727,-0.0014249369101556452,0.7744758415663419
4.611537179059686,158.47949316438812,-0.0031731861956502587,0.7709177817706232
4.621540513504501,158.432810936979,-0.0034337447780580727,0.7673228301553118
4.631543847949316,158.38612870956985,-0.0044924512119929455,0.7636910070267642
4.641547182394131,158.33944648216072,-0.006588031115550177,0.760022342227892
4.651550516838946,158.29276425475157,-0.007106815114237126,0.756316875277063
4.661553851283761,158.24608202734245,-0.008120269002858362,0.7525746555051339
4.671557185728576,158.1993997999333,-0.007143678669097453,0.7487957421905169
4.681560520173391,158.15271757252418,-0.006901874930157431,0.7449802046921798
4.691563854618206,158.10603534511503,-0.010827259878039829,0.741128122580486
4.70156718906302,158.0593531177059,-0.011489579337321254,0.7372395857657705
4.711570523507835,158.01267089029676,-0.015651131422007813,0.7333146946245561
4.7215738579526505,157.96598866288764,-0.012605386781672761,0.7293535601233125
4.731577192397466,157.9193064354785,-0.013585674392767626,0.7253563039396564
4.741580526842281,157.87262420806937,-0.016202135081019052,0.7213230585808952
4.751583861287095,157.82594198066022,-0.012951623273072558,0.7172539674998164
4.76158719573191,157.7792597532511,-0.018609071972880177,0.7131491852076219
4.771590530176725,157.73257752584195,-0.015869911263691517,0.7090088773839135
4.78159386462154,157.68589529843283,-0.015190589895570374,0.7048332209836243
4.791597199066355,157.63921307102368,-0.019425278353262947,0.7006224043408045
4.80160053351117,157.59253084361455,-0.013016213474777936,0.6963766272691627
4.811603867955985,157.5458486162054,-0.012048680444335099,0.6920961011592637
4.8216072024008,157.49916638879625,-0.02091946580210994,0.6877810490722893
4.831610536845615,157.45248416138713,-0.021251896198088715,0.6834317058302658
4.84161387129043,157.40580193397798,-0.01240886539496665,0.6790483181026596
4.851617205735245,157.35911970656886,-0.014870599320892516,0.6746311444892559
4.861620540180059,157.3124374791597,-0.020646903237578576,0.6701804555992162
4.871623874624874,157.2657552517506,-0.015355580280364236,0.6656965341262289
4.8816272090696895,157.21907302434144,-0.013669360310582706,0.6611796749196626
4.891630543514505,157.17239079693232,-0.013219049875686072,0.6566301850516258
4.90163387795932,157.12570856952317,-0.005401436344164212,0.6520483838798508
4.911637212404134,157.07902634211405,-0.007499320601812463,0.6474346031063085
4.921640546848949,157.0323441147049,0.005530778988879914,0.6427891868314697
4.931643881293764,156.98566188729578,0.00415359438066034,0.6381124916041307
4.941647215738579,156.93897965988663,-0.0006487869125625214,0.6334048864667138
4.951650550183394,156.8922974324775,0.005337875339775475,0.6286667529959615
4.961653884628209,156.84561520506836,0.010332578862495456,0.6238984853389518
4.971657219073024,156.7989329776592,0.005072759769326363,0.6191004902443424
4.981660553517839,156.75225075025008,-0.018992773374295932,0.6142731870887782
4.991663887962654,156.70556852284096,0.01136347714521507,0.6094170078983805
5.001667222407469,156.6588862954318,0.0013587867604770317,0.6045323973652446
5.011670556852284,156.61220406802266,0.028883614982350043,0.5996198128588796
5.021673891297098,156.56552184061354,0.004676279539432665,0.5946797244325148
5.031677225741913,156.51883961320442,0.014622995762378004,0.589712614824206
5.0416805601867285,156.47215738579527,0.012650861303871278,0.5847189794526828
5.051683894631544,156.42547515838612,0.04497414145350369,0.5796993264078663
5.061687229076359,156.378792930977,0.012724488091792541,0.5746541764360005
5.071690563521173,156.33211070356785,0.002745635740543744,0.5695840629193395
5.081693897965988,156.28542847615873,0.01962383049135389,0.5644895318503329
5.091697232410803,156.23874624874958,-0.0008956589210996034,0.5593711418002594
5.101700566855618,156.19206402134046,0.018588788026465013,0.5542294638822545
5.111703901300433,156.1453817939313,0.014249063755960238,0.549065081708684
5.121707235745248,156.09869956652219,0.025516210668540387,0.5438785913428259
5.131710570190063,156.05201733911304,0.09209073085973771,0.5386706012448073
5.141713904634878,156.0053351117039,0.0003217649597518843,0.5334417322117628
5.151717239079693,155.95865288429476,0.019827288244845396,0.5281926173121807
5.161720573524508,155.91197065688561,0.009277302584190652,0.5229239018143932
5.171723907969323,155.8652884294765,0.05395867469901676,0.5176362431091945
5.181727242414137,155.81860620206737,-0.04476826415595222,0.5123303106265449
5.191730576858952,155.77192397465822,-0.020157969329151003,0.5070067857463438
5.2017339113037675,155.72524174724907,0.01813059181047505,0.5016663617032532
5.211737245748583,155.67855951983995,0.05702805160565286,0.4963097434855457
5.221740580193398,155.6318772924308,0.01750438832125804,0.49093764772796833
5.231743914638212,155.58519506502168,-0.017014115287557457,0.48555080259860905
5.241747249083027,155.53851283761253,-0.049054996330397886,0.48014994767975583
5.251750583527842,155.4918306102034,0.06384706444151174,0.47473583384274953
5.261753917972657,155.44514838279426,0.15061672165628026,0.4693092231168223
5.271757252417472,155.39846615538514,0.0502999896148761,0.4638708885519264
5.281760586862287,155.351783927976,0.037749367745875693,0.45842161407556414
5.291763921307102,155.30510170056687,0.06596558948498377,0.45296219434361984
5.301767255751917,155.25841947315772,-0.09208213479306086,0.4474934345852125
5.311770590196732,155.2117372457486,-0.022431846598891178,0.44201615044158593
5.321773924641547,155.16505501833944,-0.020172944050525127,0.43653116779905043
5.331777259086362,155.11837279093032,0.05401693808578461,0.43103932261601063
5.341780593531176,155.07169056352117,0.0074102929286894575,0.4255414607440966
5.351783927975991,155.02500833611205,-0.1769861041356537,0.4200384377434325
5.3617872624208065,154.9783261087029,0.19287339869443504,0.41453111869208425
5.371790596865622,154.93164388129378,0.2998108787346493,0.4090203779897148
5.381793931310437,154.88496165388463,-0.04201118055843319,0.4035070991554961
5.391797265755251,154.83827942647548,0.0812424442825416,0.3979921746203229
5.401800600200066,154.79159719906636,0.057018270397238696,0.392476505513374
5.411803934644881,154.7449149716572,0.16948927614911782,0.3869610014430843
5.421807269089696,154.6982327442481,-0.33640511595709244,0.38144658027257383
5.431810603534511,154.65155051683894,0.3828745085876321,0.37593416788960066
5.441813937979326,154.60486828942982,-0.12240867599994569,0.3704246979711051
5.451817272424141,154.55818606202067,0.32918391036581635,0.3649191117424083
5.461820606868956,154.51150383461155,0.014404786217715994,0.3594183577311405
5.471823941313771,154.4648216072024,-0.12446432364894167,0.3539233915159752
5.481827275758586,154.41813937979327,-0.05508840563520344,0.3484351754702474
5.491830610203401,154.37145715238412,0.2784151275362962,0.3429546785005433
5.501833944648215,154.324774924975,-0.30996141024976503,0.3374828757803434
5.51183727909303,154.27809269756585,-0.15119041873820163,0.33202074847881036
5.5218406135378455,154.23141047015673,-0.19969980337099139,0.32656928348482295
5.531843947982661,154.18472824274758,-0.6975764585572819,0.321129473126344
5.541847282427476,154.13804601533843,0.518355542811595,0.31570231488523015
5.55185061687229,154.0913637879293,0.2295851971642793,0.31028881110758666
5.561853951317105,154.0446815605202,-0.0327809905559005,0.30488996870977336
5.57185728576192,153.99799933311104,0.5307300806901134,0.2995067988801797
5.581860620206735,153.95131710570192,-0.5021789635737821,0.29414031677687624
5.59186395465155,153.90463487829277,-0.06398110376491814,0.2887915412212634
5.601867289096365,153.85795265088362,0.9155847505656034,0.2834614943878452
5.61187062354118,153.8112704234745,0.5322068723332019,0.27815120149024253
5.621873957985995,153.76458819606535,-1.3531186181645694,0.2728616904635818
5.63187729243081,153.71790596865623,-2.1002256962079837,0.26759399164338626
5.641880626875625,153.67122374124708,-0.7009664464231632,0.26234913744110355
5.65188396132044,153.62454151383795,0.6918115559791584,0.257128162016412
5.661887295765254,153.5778592864288,-0.360142159766155,0.2519321009464367
5.671890630210069,153.53117705901968,-0.1862908790793432,0.24676199089202355
5.6818939646548845,153.48449483161053,0.4406086583895155,0.24161886926121812
5.6918972990997,153.4378126042014,-0.7307152775350256,0.2365037738700918
5.701900633544515,153.39113037679226,0.15295359311273207,0.2314177426010704
5.711903967989329,153.34444814938314,0.6610099214999965,0.22636181305891578
5.721907302434144,153.297765921974,0.39758189294139085,0.22133702222451612
5.731910636878959,153.25108369456484,0.34903483467610763,0.21634440610664596
5.741913971323774,153.20440146715572,-0.6011570376952887,0.21138499939185085
5.751917305768589,153.1577192397466,0.4997616352991809,0.20645983509261978
5.761920640213404,153.11103701233745,-0.46070671247123707,0.20156994419401564
5.771923974658219,153.0643547849283,1.3967642412525159,0.19671635529892018
5.781927309103034,153.01767255751918,2.866695248909183,0.191900094272069
5.791930643547849,152.97099033011006,-0.8674477530496753,0.18712218388304303
5.801933977992664,152.9243081027009,-2.6184925300339197,0.18238364344838598
5.811937312437479,152.87762587529176,-0.5335920455621839,0.17768548847302812
5.821940646882293,152.83094364788263,0.48177868784567424,0.1730287302911806
5.831943981327108,152.78426142047348,1.395156339037499,0.1684143757068821
5.8419473157719235,152.73757919306436,1.4836103919119334,0.1638434266343759
5.851950650216739,152.6908969656552,-1.1073901788721179,0.15931687973848974
5.861953984661554,152.6442147382461,-1.154514105718824,0.15483572607520202
5.871957319106368,152.59753251083694,1.9231719853733955,0.1504009507325732
5.881960653551183,152.55085028342782,-1.6901554726258101,0.14601353247222026
5.891963987995998,152.50416805601867,1.7640044424107517,0.14167444337152124
5.901967322440813,152.45748582860955,-0.3594167326637507,0.13738464846672582
5.911970656885628,152.4108036012004,1.3233853107736793,0.1331451053971554
5.921973991330443,152.36412137379125,1.258017512754219,0.12895676405068013
5.931977325775258,152.31743914638213,1.4226687823236015,0.12482056621064841
5.941980660220073,152.270756918973,1.5452286369089876,0.12073744520445595
5.951983994664888,152.22407469156386,-1.8595215635783084,0.11670832555393718
5.961987329109703,152.1773924641547,0.6097931009660867,0.11273412262775784
5.971990663554518,152.13071023674559,0.05705773170323682,0.10881574229599744
5.981993997999332,152.08402800933646,0.6663103035987121,0.10495408058709665
5.991997332444147,152.0373457819273,2.63995308566635,0.10115002334735324
6.0020006668889625,151.99066355451816,-0.5552666490874958,0.09740444590315123
6.012004001333778,151.94398132710904,-1.548376633615942,0.09371821272609548
6.022007335778593,151.8972990996999,-1.6226240412770756,0.09009217710123729
6.032010670223407,151.85061687229077,-0.6893317547304334,0.0865271807985647
6.042014004668222,151.80393464488162,1.828449439227501,0.08302405374793498
6.052017339113037,151.7572524174725,-1.9506752195839223,0.07958361371762801
6.062020673557852,151.71057019006335,2.9225468682312945,0.07620666599668924
6.072024008002667,151.66388796265423,0.7737667667782793,0.07289400308123661
6.082027342447482,151.61720573524508,-0.5534145425605432,0.06964640436490643
6.092030676892297,151.57052350783596,-3.498178544641394,0.06646463583360007
6.102034011337112,151.5238412804268,0.6951606133601874,0.0633494497647038
6.112037345781927,151.4771590530177,1.9387729255860144,0.060301584430945354
6.122040680226742,151.43047682560854,-4.933593593078256,0.0573217638090493
6.132044014671557,151.38379459819942,3.441639312104496,0.05441069729335479
6.142047349116371,151.33711237079027,4.830406935221081,0.05156907941455102
6.152050683561186,151.29043014338112,1.0292630098669655,0.04879758956368707
6.1620540180060015,151.243747915972,1.5068656674431284,0.046096891721612354
6.172057352450817,151.19706568856284,7.424093681060078,0.043467634193994575
6.182060686895632,151.15038346115372,3.857769677840868,0.04091044935206534
6.192064021340446,151.10370123374457,-2.8252520453620824,0.03842595337923849
6.202067355785261,151.05701900633545,-0.03988295634325949,0.03601474602374155
6.212070690230076,151.0103367789263,-0.5006175221933641,0.03367741035740224
6.222074024674891,150.96365455151718,-0.49058359458199113,0.03141451254072303
6.232077359119706,150.91697232410803,-7.9157624593260225,0.029226601594376844
6.242080693564521,150.8702900966989,2.571707192754069,0.02711420917725449
6.252084028009336,150.82360786928976,-2.1889454242232924,0.025077849371187955
6.262087362454151,150.77692564188064,0.5655982145126904,0.023118018472471302
6.272090696898966,150.7302434144715,-0.48565366107698577,0.021235194790299228
6.282094031343781,150.68356118706237,3.0892435113378656,0.019429838452235226
6.292097365788596,150.63687895965322,-1.0761166437917051,0.017702391216824376
6.30210070023341,150.5901967322441,-2.904060230313284,0.01605327629345188
6.312104034678225,150.54351450483495,1.9333804327943895,0.014482898169554614
6.3221073691230405,150.49683227742582,5.17580836375664,0.012991642445283724
6.332110703567856,150.45015005001667,-1.2173342647496208,0.011579875675710727
6.342114038012671,150.40346782260752,5.125946121655389,0.010247945220669519
6.352117372457485,150.3567855951984,0.9643590452396518,0.008996179102320645
6.3621207069023,150.31010336778925,-2.064824570129541,0.007824885870516884
6.372124041347115,150.26342114038013,5.82537732362242,0.006734354476052085
6.38212737579193,150.21673891297098,-3.19996868155352,0.005724854151860748
6.392130710236745,150.17005668556186,3.90355185081786,0.004796634302240976
6.40213404468156,150.1233744581527,-1.9856083281886014,0.003949924400163507
6.412137379126375,150.0766922307436,1.7259683516871953,0.0031849338927241178
6.42214071357119,150.03001000333444,-4.905404873258144,0.0025018521147963657
6.432144048016005,149.98332777592532,-3.3556689460157996,0.0019008482109336144
6.44214738246082,149.93664554851617,4.181191187427755,0.0013820710655648716
6.452150716905635,149.88996332110705,0.7037291665348827,0.0009456492415260698
6.462154051350449,149.8432810936979,0.1078451443090967,0.0005916909269604309
6.472157385795264,149.79659886628878,-1.8006902872699984,0.00032028389062055407
6.4821607202400795,149.74991663887963,1.7399208772816688,0.00013149544559720725
6.492164054684895,149.70323441147048,-5.63234700749862,2.53724214953621e-05
6.50216738912971,149.65655218406135,-4.523064706044921,1.9411450744577342e-06
6.512170723574524,149.60986995665223,-0.6733064308676036,6.120742936355227e-05
6.522174058019339,149.56318772924308,-3.374195359288879,0.00020315657125757888
6.532177392464154,149.51650550183393,-2.834833182940782,0.0004277533575971493
6.542180726908969,149.4698232744248,-0.32261997949876914,0.0007349420797262418
6.552184061353784,149.4231410470157,-0.582268784728696,0.001124646556521891
6.562187395798599,149.37645881960654,-0.9152177603415484,0.0015967701658806677
6.572190730243414,149.3297765921974,6.544727981003139,0.002151195884644519
6.582194064688229,149.28309436478827,3.9488379489573644,0.0027877863369426548
6.592197399133044,149.23641213737912,4.791054475137454,0.003506383850922057
6.602200733577859,149.18972990997,-0.13247410916939942,0.004306810523832638
6.612204068022674,149.14304768256085,-1.9764530229494945,0.00518886829543086
6.622207402467488,149.09636545515173,-5.621214498205731,0.0061523390296580605
6.632210736912303,149.04968322774258,-1.34642186568148,0.007196984604547874
6.6422140713571185,149.00300100033346,-7.9464945911718505,0.008322547010308767
6.652217405801934,148.9563187729243,-2.210566290194845,0.009528748455527647
6.662220740246749,148.90963654551518,2.862955399025875,0.010815291481431122
6.672224074691563,148.86295431810603,6.030190604257462,0.012181859084139601
6.682227409136378,148.8162720906969,3.5643270095831974,0.01362811484484494
6.692230743581193,148.76958986328776,-3.13606999772733,0.015153703067833812
6.702234078026008,148.72290763587864,1.7948338272371287,0.01675824892628086
6.712237412470823,148.6762254084695,-2.806961614880644,0.0184413586157266
6.722240746915638,148.62954318106034,2.935119600895618,0.020202619515150455
6.732244081360453,148.58286095365122,-0.3650735122622947,0.022041600355549806
6.742247415805268,148.53617872624207,2.998139229253754,0.023957851395926877
6.752250750250083,148.48949649883295,8.827095828223383,0.025950904606582448
6.762254084694898,148.4428142714238,3.148883576050429,0.028020273859613143
6.772257419139713,148.39613204401468,7.807632825245004,0.030165455126502816
6.782260753584527,148.34944981660556,0.6242109584166649,0.03238592668269569
6.792264088029342,148.3027675891964,-1.0241527796596008,0.03468114931903665
6.8022674224741575,148.25608536178726,4.303858346766037,0.03705056655995509
6.812270756918973,148.20940313437814,5.470245278649404,0.03949360488827269
6.822274091363788,148.16272090696899,-1.6671196298105997,0.04200967397650612
6.832277425808602,148.11603867955986,0.2858967760190405,0.04459816692453378
6.842280760253417,148.0693564521507,-4.242757712377255,0.047258460503493915
6.852284094698232,148.0226742247416,-0.5338281159381217,0.04998991540577491
6.862287429143047,147.97599199733244,2.6257800659419446,0.05279187650096029
6.872290763587862,147.92930976992332,-0.18879766231151426,0.05566367309758313
6.882294098032677,147.88262754251417,-1.5303143527595051,0.05860461921054261
6.892297432477492,147.83594531510505,-3.7926914501506293,0.06161401383403642
6.902300766922307,147.7892630876959,1.0441231316436126,0.06469114121985475
6.912304101367122,147.74258086028675,2.1522476272565005,0.06783527116088173
6.922307435811937,147.69589863287763,1.5906782246954863,0.07104565927964901
6.932310770256752,147.6492164054685,0.6969222312508615,0.07432154732177798
6.942314104701566,147.60253417805936,-3.092382749263309,0.07766216345415344
6.952317439146381,147.5558519506502,4.301768288778156,0.0810667225676629
6.9623207735911965,147.5091697232411,-0.08632837189962436,0.08453442658433286
6.972324108036012,147.46248749583194,-0.2894318237784569,0.08806446476869911
6.982327442480827,147.41580526842282,1.692179722358227,0.0916560140432372
6.992330776925641,147.36912304101367,-4.7175471657602515,0.09530823930768295
7.002334111370456,147.32244081360454,-0.10339769615081067,0.09902029376207155
7.012337445815271,147.2757585861954,-0.25496495406602304,0.10279131923331553
7.022340780260086,147.22907635878627,0.7865129096213801,0.10662044650515223
7.032344114704901,147.18239413137712,2.699848538165271,0.1105067956512803
7.042347449149716,147.135711903968,0.932548662239243,0.11444947637150427
7.052350783594531,147.08902967655885,-3.4357613224073478,0.11844758833071367
7.062354118039346,147.0423474491497,-0.6113063809331869,0.12250022150051265
7.072357452484161,146.99566522174058,0.37137054281389575,0.1266064565033196
7.082360786928976,146.94898299433146,0.2552643353297057,0.1307653649587579
7.092364121373791,146.9023007669223,-2.1592251372399143,0.13497600983214963
7.102367455818605,146.85561853951316,-2.7259991916263164,0.1392374457849389
7.11237079026342,146.80893631210404,0.8559582721003316,0.1435487195268551
7.1223741247082355,146.76225408469492,0.5091782833392089,0.14790887016963405
7.132377459153051,146.71557185728577,-0.05536200123520208,0.1523169295821185
7.142380793597866,146.66888962987662,-2.5197598746441163,0.15677192274655116
7.15238412804268,146.6222074024675,2.4481876387708636,0.16127286811587938
7.162387462487495,146.57552517505837,-3.9637388958465714,0.16581877797189082
7.17239079693231,146.52884294764922,-0.5184969494134719,0.17040865878399403
7.182394131377125,146.48216072024007,2.60349537939122,0.17504151156846892
7.19239746582194,146.43547849283095,-0.2422469886343513,0.17971633224800398
7.202400800266755,146.3887962654218,0.22146998079247485,0.18443211201133702
7.21240413471157,146.34211403801268,-1.403520250626363,0.18918783767282954
7.222407469156385,146.29543181060353,1.438630366982173,0.19398249203178852
7.2324108036012,146.2487495831944,-1.4372338857359466,0.1988150542313648
7.242414138046015,146.20206735578526,0.19631126957346173,0.20368450011685246
7.25241747249083,146.1553851283761,0.06664086429058677,0.20858980259320992
7.262420806935644,146.108702900967,-1.0689259598498722,0.21352993198163928
7.272424141380459,146.06202067355787,0.7434047001700942,0.21850385637504832
7.2824274758252745,146.01533844614872,-1.3199211580433767,0.22351054199222353
7.29243081027009,145.96865621873957,-0.6512517165557082,0.22854895353055416
7.302434144714905,145.92197399133045,-0.09482414633063957,0.23361805451713613
7.312437479159719,145.87529176392133,-0.39450621591419843,0.23871680765809442
7.322440813604534,145.82860953651218,0.2817262928308447,0.24384417518596554
7.332444148049349,145.78192730910303,0.5984476181921745,0.24899911920497317
7.342447482494164,145.7352450816939,-0.2716078629930637,0.25418060203405013
7.352450816938979,145.68856285428475,-0.4260703302319825,0.2593875865474473
7.362454151383794,145.64188062687563,-0.39322543467935295,0.2646190365127735
7.372457485828609,145.59519839946648,-0.28426071499495886,0.26987391692632645
7.382460820273424,145.54851617205736,0.4155456363030687,0.27515119434555924
7.392464154718239,145.5018339446482,-0.176267657296584,0.280449837218543
7.402467489163054,145.4551517172391,0.16756540672267556,0.28576881621028377
7.412470823607869,145.40846948982994,-0.09324226396877822,0.291107104525751
7.422474158052683,145.36178726242082,-0.4553164058610115,0.2964636782294882
7.432477492497498,145.31510503501167,0.3662464711923637,0.3018375165616706
7.4424808269423135,145.26842280760255,-0.49561943154189836,0.3072276022504756
7.452484161387129,145.2217405801934,-0.02456919035123207,0.3126329218206472
7.462487495831944,145.17505835278428,0.5821630430394181,0.31805246589812625
7.472490830276758,145.12837612537513,-0.4393790659259839,0.3234852295106257
7.482494164721573,145.08169389796598,-0.03073546536683001,0.32893021238403947
7.492497499166388,145.03501167055686,-0.5613162676019441,0.3343864192345613
7.502500833611203,144.98832944314773,-0.16888265740075029,0.3398528600564145
7.512504168056018,144.94164721573858,-0.4680895483500024,0.34532855040508065
7.522507502500833,144.89496498832943,-0.09583128488140641,0.35081251167591926
7.532510836945648,144.8482827609203,-0.1352039767030834,0.35630377137808883
7.542514171390463,144.80160053351116,0.06169826707905236,0.36180136340366353
7.552517505835278,144.75491830610204,0.44266867899826623,0.3673043282918589
7.562520840280093,144.7082360786929,0.10702882530353991,0.37281171348827447
7.572524174724908,144.66155385128377,0.1967442136271362,0.37832257359906685
7.582527509169722,144.61487162387465,0.037184364088468064,0.383835970639975
7.592530843614537,144.5681893964655,0.002307458572765632,0.38935097428011844
7.6025341780593525,144.52150716905635,-0.10723129932925819,0.39486666208048843
7.612537512504168,144.47482494164723,-0.27575121945963044,0.400382119727071
7.622540846948983,144.42814271423808,0.07990342508395254,0.4058964412585267
7.632544181393797,144.38146048682896,0.34623177873944644,0.4114087292883671
7.642547515838612,144.3347782594198,0.15124288492462318,0.41691809522157003
7.652550850283427,144.28809603201069,-0.0017458329090765945,0.42242365946557214
7.662554184728242,144.24141380460154,0.31595301168549794,0.42792455163559295
7.672557519173057,144.19473157719239,0.025832085114416432,0.4334199107542406
7.682560853617872,144.14804934978326,0.007487008817105317,0.4389088854453492
7.692564188062687,144.10136712237414,-0.05747369134023762,0.4443906341220161
7.702567522507502,144.054684894965,-0.01995975859691232,0.4498643251687946
7.712570856952317,144.00800266755584,0.06267909945977537,0.4553291371180115
7.722574191397132,143.96132044014672,0.2883473697829989,0.4607842588201827
7.732577525841947,143.91463821273757,0.06889281680135842,0.4662288896084919
7.742580860286761,143.86795598532845,-0.00393963079040445,0.4716622394573221
7.752584194731576,143.8212737579193,0.035371887493636164,0.477083529134814
7.7625875291763915,143.77459153051018,0.0662232603860993,0.4824919903494332
7.772590863621207,143.72790930310103,-0.04449504753746804,0.48788686589054536
7.782594198066022,143.6812270756919,0.0867429875428289,0.49326740976298145
7.792597532510836,143.63454484828276,0.11977430508456459,0.498632887315593
7.802600866955651,143.58786262087364,0.08994631370047072,0.503982575363799
7.812604201400466,143.5411803934645,0.1001966712621207,0.5093157623061195
7.822607535845281,143.49449816605534,-0.007456693555589762,0.5146317482347101
7.832610870290096,143.44781593864622,-0.028758589860801383,0.5199298450399054
7.842614204734911,143.4011337112371,0.11029514143445995,0.5252093765087753
7.852617539179726,143.35445148382794,0.09209359142939083,0.530469678417726
7.862620873624541,143.3077692564188,-0.02488920013576252,0.5357100986191505
7.872624208069356,143.26108702900967,0.039298727425681024,0.5409299971221591
7.882627542514171,143.21440480160055,0.025500481203912097,0.5461287461674157
7.892630876958986,143.1677225741914,0.03568919816206398,0.5513057302961026
7.9026342114038,143.12104034678225,0.016815089385430918,0.5564603464130534
7.912637545848615,143.07435811937313,-0.011567074833339401,0.5615920038440863
7.9226408802934305,143.02767589196398,0.0008259229403624379,0.5667001243875699
7.932644214738246,142.98099366455486,-0.007983222269378323,0.5717841423602734
7.942647549183061,142.9343114371457,-0.020573492159070686,0.5768435046375343
7.952650883627875,142.8876292097366,-0.06734584936805633,0.5818776706877962
7.96265421807269,142.84094698232747,-0.09513725451110018,0.5868861126015648
7.972657552517505,142.79426475491832,-0.05646089276356266,0.5918683151148291
7.98266088696232,142.74758252750917,-0.07733919255030455,0.5968237756270091
7.992664221407135,142.70090030010005,-0.051375437271667365,0.6017520042134844
8.00266755585195,142.6542180726909,-0.05127416456569574,0.606652523632757
8.012670890296764,142.60753584528177,-0.06476976657545151,0.6115248693283187
8.02267422474158,142.56085361787262,-0.07930892085171017,0.6163685894252843
8.032677559186395,142.5141713904635,-0.0792748334493659,0.6211832447218479
8.04268089363121,142.46748916305435,-0.07226859518280024,0.6259684086756504
8.052684228076025,142.4208069356452,-0.09774616449372209,0.6307236673851014
8.06268756252084,142.37412470823608,-0.0856234927585782,0.6354486195657565
8.072690896965655,142.32744248082696,-0.09202923426335437,0.6401428765218017
8.08269423141047,142.2807602534178,-0.0994815030785505,0.6448060621127292
8.092697565855284,142.23407802600866,-0.0933297368914948,0.6494378127152909
8.1027009003001,142.18739579859954,-0.11162729471991176,0.6540377771807953
8.112704234744914,142.14071357119042,-0.10203513095847044,0.6586056167878321
8.122707569189728,142.09403134378127,-0.11472695172485836,0.6631410051905211
8.132710903634544,142.04734911637212,-0.11376731998600506,0.6676436283623504
8.142714238079359,142.000666888963,-0.1146753417531462,0.672113184535698
8.152717572524175,141.95398466155385,-0.10627393156444745,0.6765493841371341
8.162720906968989,141.90730243414473,-0.11093352967018395,0.6809519497185693
8.172724241413803,141.86062020673558,-0.10449990629779934,0.6853206158843643
8.18272757585862,141.81393797932645,-0.1061203239505628,0.6896551292144725
8.192730910303434,141.7672557519173,-0.09494829859230083,0.6939552481837119
8.20273424474825,141.72057352450815,-0.08886135359352135,0.6982207430772716
8.212737579193064,141.67389129709903,-0.08936559336218455,0.7024513959025224
8.222740913637878,141.6272090696899,-0.08056929283988368,0.7066470002972539
8.232744248082694,141.58052684228076,-0.07787226726920218,0.7108073614344091
8.242747582527508,141.5338446148716,-0.06824915179538318,0.7149322959234233
8.252750916972323,141.4871623874625,-0.06619754150580587,0.7190216317082709
8.262754251417139,141.44048016005334,-0.06222602799276047,0.7230752079623008
8.272757585861953,141.39379793264422,-0.04925043412695604,0.7270928749799682
8.282760920306767,141.34711570523507,-0.04411328663105034,0.7310744940655631
8.292764254751583,141.30043347782595,-0.037191154705489594,0.735019937419025
8.302767589196398,141.25375125041683,-0.028076985654393427,0.7389290880189459
8.312770923641214,141.20706902300768,-0.02043539364709595,0.742801839502867
8.322774258086028,141.16038679559853,-0.00975138085281006,0.7466380960449538
8.332777592530842,141.1137045681894,-0.001577833727535807,0.7504377722311636
8.342780926975658,141.06702234078026,0.010000484397756266,0.7542007929319927
8.352784261420473,141.02034011337113,0.018389050285108503,0.757927093172906
8.362787595865289,140.97365788596198,0.02574852060835361,0.761616618002553
8.372790930310103,140.92697565855286,0.035073734972518866,0.765269322358855
8.382794264754917,140.8802934311437,0.044751310142307474,0.7688851709330794
8.392797599199733,140.83361120373456,0.05281772851531366,0.7724641380319822
8.402800933644547,140.78692897632544,0.062459746235871326,0.7760062074381249
8.412804268089362,140.74024674891632,0.07081106541615216,0.7795113722684649
8.422807602534178,140.69356452150717,0.07848369161471812,0.7829796348313082
8.432810936978992,140.64688229409805,0.08621441866052973,0.7864110064817224
8.442814271423806,140.6002000666889,0.09379620354669184,0.7898055074755136
8.452817605868622,140.55351783927978,0.10079859993212126,0.7931631668218496
8.462820940313437,140.50683561187063,0.10698397164993144,0.796484022134628
8.472824274758253,140.46015338446148,0.1122045270574729,0.799768119482689
8.482827609203067,140.41347115705236,0.1174665692192105,0.8030155132389514
8.492830943647881,140.36678892964323,0.12153345221027952,0.8062262659285788
8.502834278092697,140.32010670223409,0.12555986456749954,0.8094004480762538
8.512837612537512,140.27342447482494,0.12840068065009688,0.8125381380526531
8.522840946982328,140.2267422474158,0.13108169878673995,0.815639421920221
8.532844281427142,140.18006002000666,0.13243743775577366,0.8187043932783122
8.542847615871956,140.13337779259754,0.13340464966375903,0.8217331531078081
8.552850950316772,140.0866955651884,0.13368803431057383,0.8247258096152773
8.562854284761586,140.04001333777927,0.13313914387529277,0.8276824780767711
8.5728576192064,139.99333111037012,0.13155578517338393,0.8306032806813414
8.582860953651217,139.94664888296097,0.12950067228904866,0.8334883463743517
8.592864288096031,139.89996665555185,0.12664632818004587,0.8363378107006694
8.602867622540845,139.85328442814273,0.1229849183809765,0.8391518156478204
8.612870956985661,139.80660220073358,0.11850632781107327,0.8419305094891755
8.622874291430476,139.75991997332443,0.11343795208485315,0.8446740466272505
8.632877625875292,139.7132377459153,0.10759038843820833,0.8473825874372
8.642880960320106,139.6665555185062,0.10117183999163074,0.8500562981105637
8.65288429476492,139.61987329109704,0.09398850965904454,0.8526953504993574
8.662887629209736,139.5731910636879,0.08616771708851559,0.8552999219605618
8.67289096365455,139.52650883627877,0.07782989105350965,0.8578701952010864
8.682894298099367,139.47982660886962,0.06907236930098469,0.8604063581232814
8.692897632544181,139.4331443814605,0.05978723224839958,0.8629086036710502
8.702900966988995,139.38646215405134,0.050014552756435446,0.8653771296766436
8.712904301433811,139.33977992664222,0.039908940311204386,0.8678121387081855
8.722907635878625,139.29309769923307,0.02943607488441142,0.870213837917997
8.73291097032344,139.24641547182395,0.01871272053207637,0.8725824388917856
8.742914304768256,139.1997332444148,0.007834750036707529,0.8749181574987446
8.75291763921307,139.15305101700568,-0.0032357147338181636,0.8772212137426303
8.762920973657884,139.10636878959656,-0.014371098852352177,0.8794918316138708
8.7729243081027,139.0596865621874,-0.02555830550945521,0.8817302389427554
8.782927642547515,139.01300433477826,-0.03665859276874433,0.8839366672537614
8.79293097699233,138.96632210736914,-0.047675666528571393,0.8861113516210687
8.802934311437145,138.91963987996,-0.058499768902394444,0.8882545305253069
8.81293764588196,138.87295765255084,-0.06911033112495026,0.8903664457115895
8.822940980326775,138.82627542514172,-0.07940980004456241,0.8924473420488738
8.83294431477159,138.7795931977326,-0.08934714050532233,0.8944974673906926
8.842947649216406,138.73291097032345,-0.09885278296311033,0.8965170724373058
8.85295098366122,138.6862287429143,-0.1078940271066577,0.8985064105993031
8.862954318106034,138.63954651550517,-0.11639499536350546,0.900465737862706
8.87295765255085,138.59286428809605,-0.12430249724306518,0.9023953126556008
8.882960986995664,138.5461820606869,-0.13156742191700038,0.90429539571634
8.892964321440479,138.49949983327775,-0.1381358818539135,0.9061662499633509
8.902967655885295,138.45281760586863,-0.1439876813803123,0.9080081403665773
8.912970990330109,138.40613537845948,-0.14905446757999108,0.9098213338205896
8.922974324774923,138.35945315105036,-0.15331125532527115,0.9116060990193942
8.93297765921974,138.3127709236412,-0.1567291971691801,0.9133627063329675
8.942980993664554,138.2660886962321,-0.15928185928929217,0.9150914276855407
8.95298432810937,138.21940646882294,-0.16093991616362455,0.9167925364356665
8.962987662554184,138.17272424141382,-0.1616910525718188,0.9184663072580809
8.972990996998998,138.12604201400467,-0.1615210197427732,0.9201130160273939
8.982994331443814,138.07935978659555,-0.16042405411176133,0.9217329397036207
8.992997665888629,138.0326775591864,-0.1583945620621112,0.9233263562195754
9.003001000333445,137.98599533177725,-0.15544099813675472,0.9248935443701485
9.013004334778259,137.93931310436813,-0.15156728989837456,0.9264347837034774
9.023007669223073,137.892630876959,-0.14679225686949515,0.9279503544140315
9.03301100366789,137.84594864954985,-0.14112990314097207,0.9294405372376211
9.043014338112703,137.7992664221407,-0.13460999848079816,0.9309056133483425
9.053017672557518,137.75258419473158,-0.12725911933030506,0.9323458642574743
9.063021007002334,137.70590196732243,-0.11911239206817709,0.9337615717143266
9.073024341447148,137.6592197399133,-0.11021166907759303,0.935153017609058
9.083027675891962,137.61253751250416,-0.10059936608639465,0.9365204838774648
9.093031010336778,137.56585528509504,-0.0903260650506978,0.937864252407747
9.103034344781593,137.51917305768592,-0.07944319875758515,0.9391846049492544
9.113037679226409,137.47249083027674,-0.0680099121198721,0.9404818230232217
9.123041013671223,137.42580860286762,-0.05608595159090309,0.9417561878354846
9.133044348116037,137.3791263754585,-0.0437352835018108,0.9430079801911883
9.143047682560853,137.33244414804935,-0.03102567713036564,0.9442374804114789
9.153051017005668,137.28576192064023,-0.01802718444037093,0.9454449682521812
9.163054351450484,137.23907969323108,-0.004811341599325018,0.9466307228244595
9.173057685895298,137.19239746582195,0.008547455585844112,0.9477950225174547
9.183061020340112,137.1457152384128,0.021973467379971343,0.948938144922898
9.193064354784928,137.09903301100366,0.035390420099001764,0.9500603667616891
9.203067689229742,137.05235078359453,0.04872113187492294,0.9511619638124369
9.213071023674557,137.0056685561854,0.06188831996789793,0.9522432108419533
9.223074358119373,136.95898632877626,0.07481465584299597,0.95330438153769
9.233077692564187,136.9123041013671,0.08742399167524252,0.9543457484421104
9.243081027009001,136.865621873958,0.09964123829916322,0.9553675828889848
9.253084361453817,136.81893964654884,0.11139256187996692,0.9563701549415986
9.263087695898632,136.77225741913972,0.12260662048636332,0.9573537333328591
9.273091030343448,136.72557519173057,0.13321414928614533,0.9583185854072906
9.283094364788262,136.67889296432145,0.14314912628748394,0.959264977064901
9.293097699233076,136.63221073691233,0.152348695445201,0.9601931727069072
9.303101033677892,136.58552850950318,0.16075369777648235,0.9611034351833035
9.313104368122707,136.53884628209403,0.16830896079156354,0.9619960257422557
9.323107702567523,136.4921640546849,0.17496387344333036,0.9628712039813067
9.333111037012337,136.44548182727576,0.18067248412333206,0.9637292278003715
9.343114371457151,136.39879959986663,0.18539391116212922,0.9645703533565103
9.353117705901967,136.35211737245749,0.1890926139709949,0.9653948350204549
9.363121040346781,136.30543514504836,0.19173863487784198,0.96620292533487
9.373124374791596,136.2587529176392,0.1933078247319204,0.9669948749743357
9.383127709236412,136.21207069023006,0.19378200803445983,0.9677709327070215
9.393131043681226,136.16538846282094,0.1931491586410745,0.9685313453580383
9.40313437812604,136.11870623541182,0.19140357831879684,0.9692763577744442
9.413137712570856,136.07202400800267,0.18854581897644668,0.9700062127918823
9.42314104701567,136.02534178059355,0.1845829328277614,0.9707211512028281
9.433144381460487,135.9786595531844,0.1795283334639125,0.9714214117264269
9.443147715905301,135.93197732577525,0.1734018662946164,0.972107230979893
9.453151050350115,135.88529509836613,0.166229685869933,0.972778843451453
9.463154384794931,135.83861287095698,0.15804419751138998,0.9734364814748053
9.473157719239746,135.79193064354786,0.14888390802047285,0.9740803752050733
9.483161053684562,135.7452484161387,0.13879325292312372,0.9747107525962313
9.493164388129376,135.6985661887296,0.12782239613255106,0.9753278393799713
9.50316772257419,135.65188396132044,0.11602698989476294,0.9759318590459946
9.513171057019006,135.60520173391131,0.10346788909691951,0.9765230328236969
9.52317439146382,135.55851950650217,0.09021085303693514,0.977101579665224
9.533177725908635,135.51183727909304,0.07632620544608461,0.9776677162298748
9.54318106035345,135.4651550516839,0.06188846730240145,0.9782216568698221
9.553184394798265,135.41847282427477,0.04697595928128025,0.9787636136171293
9.56318772924308,135.37179059686562,0.03167038386347568,0.9792937961720359
9.573191063687895,135.32510836945647,0.01605638323155428,0.9798124118924858
9.58319439813271,135.27842614204735,0.00022107428989577693,0.9803196657848723
9.593197732577526,135.23174391463823,-0.01574643535608601,0.9808157604959766
9.60320106702234,135.18506168722908,-0.03175553816699747,0.9813008963060693
9.613204401467154,135.13837945981993,-0.04771464326259661,0.9817752711231537
9.62320773591197,135.0916972324108,-0.06353169204286316,0.9822390804783219
9.633211070356785,135.0450150050017,-0.07911468791689019,0.9826925175221981
9.6432144048016,134.99833277759254,-0.094372224962701,0.9831357730224464
9.653217739246415,134.9516505501834,-0.10921401982722641,0.9835690353623114
9.66322107369123,134.90496832277427,-0.12355144287337785,0.9839924905401725
9.673224408136045,134.85828609536512,-0.1372980406176944,0.9844063221700804
9.68322774258086,134.811603867956,-0.1503700536452544,0.9848107114832546
9.693231077025674,134.76492164054685,-0.1626869196926529,0.9852058373305145
9.70323441147049,134.71823941313772,-0.17417176471705867,0.9855918761856177
9.713237745915304,134.67155718572857,-0.18475187646370747,0.9859690021494837
9.723241080360118,134.62487495831945,-0.19435915635466086,0.9863373869552728
9.733244414804934,134.5781927309103,-0.20293055005274516,0.9866971999743025
9.743247749249749,134.53151050350118,-0.21040845148281984,0.9870486082227681
9.753251083694565,134.48482827609203,-0.21674107884743885,0.9873917763692505
9.763254418139379,134.4381460486829,-0.22188282021210098,0.9877268667429833
9.773257752584193,134.39146382127376,-0.22579454609939595,0.9880540393428539
9.78326108702901,134.3447815938646,-0.22844388709427135,0.9883734518471187
9.793264421473824,134.2980993664555,-0.22980547481896385,0.9886852596238045
9.80326775591864,134.25141713904634,-0.22986114449354908,0.9889896157417757
9.813271090363454,134.20473491163722,-0.22860009710388565,0.9892866709824428
9.823274424808268,134.1580526842281,-0.22601902087295891,0.9895765738520886
9.833277759253084,134.11137045681895,-0.22212217012222096,0.9898594705947922
9.843281093697898,134.0646882294098,-0.21692140123094092,0.9901355052059234
9.853284428142713,134.01800600200067,-0.21043616491266548,0.9904048194461922
9.863287762587529,133.97132377459153,-0.2026934546342018,0.9906675528562244
9.873291097032343,133.9246415471824,-0.19372771109412315,0.9909238427716474
9.883294431477157,133.87795931977325,-0.1835806828688004,0.9911738243386614
9.893297765921973,133.83127709236413,-0.17230124387631313,0.9914176305300777
9.903301100366788,133.78459486495498,-0.15994516815348714,0.9916553921618004
9.913304434811604,133.73791263754583,-0.14657486308513865,0.9918872379097344
9.923307769256418,133.6912304101367,-0.13225906220835282,0.9921132943270974
9.933311103701232,133.6445481827276,-0.11707247906054061,0.9923336858621172
9.943314438146048,133.59786595531844,-0.10109542383944307,0.9925485348760946
9.953317772590863,133.55118372790932,-0.08441338464039913,0.9927579616618134
9.963321107035679,133.50450150050017,-0.0671165756201283,0.992962084462278
9.973324441480493,133.45781927309105,-0.04929945426389199,0.9931610194897608
9.983327775925307,133.4111370456819,-0.031060210406954038,0.9933548809451415
9.993331110370123,133.36445481827275,-0.012500229709496236,0.9935437810375197
10.003334444814937,133.31777259086363,0.0062764655099046196,0.9937278300040847
10.013337779259752,133.2710903634545,0.025163795010468806,0.9939071361302249
10.023341113704568,133.22440813604535,0.04405421576430446,0.9940818057698596
10.033344448149382,133.1777259086362,0.06283933015848221,0.9942519433659782
10.043347782594196,133.13104368122708,0.08141050384915377,0.9944176514713698
10.053351117039012,133.08436145381793,0.09965948978044888,0.9945790307695273
10.063354451483827,133.0376792264088,0.11747905479444945,0.9947361800957126
10.073357785928643,132.99099699899966,0.13476360524205164,0.9948891964581658
10.083361120373457,132.94431477159054,0.15140980795674305,0.9950381750594447
10.093364454818271,132.89763254418142,0.16731720297234842,0.9951832093178812
10.103367789263087,132.85095031677224,0.1823888043771372,0.9953243908891394
10.113371123707902,132.80426808936312,0.19653168573708235,0.9954618096878624
10.123374458152718,132.757585861954,0.20965754658529642,0.9955955539093949
10.133377792597532,132.71090363454485,0.22168325655790888,0.9957257100515687
10.143381127042346,132.66422140713573,0.2325313738578463,0.9958523629365382
10.153384461487162,132.61753917972658,0.24213063485290803,0.9959755957326536
10.163387795931976,132.57085695231746,0.25041641175721363,0.9960954899763609
10.17339113037679,132.5241747249083,0.257331135505877,0.996212125594117
10.183394464821607,132.47749249749916,0.26282468111345536,0.9963255809243075
10.193397799266421,132.43081027009003,0.2668547130029476,0.9964359327391571
10.203401133711235,132.3841280426809,0.26938698800459954,0.996543256266624
10.213404468156051,132.33744581527176,0.2703956139521123,0.9966476252122648
10.223407802600866,132.2907635878626,0.26986326204536176,0.9967491117810617
10.233411137045682,132.2440813604535,0.26778133140187704,0.9968477866992034
10.243414471490496,132.19739913304434,0.26415006448554174,0.9969437192358083
10.25341780593531,132.15071690563522,0.25897861237474756,0.9970369772245838
10.263421140380126,132.10403467822607,0.2522850491152092,0.9971276270854098
10.27342447482494,132.05735245081695,0.2440963346921645,0.997215733845841
10.283427809269757,132.0106702234078,0.23444822645029795,0.9973013611625188
10.293431143714571,131.96398799599868,0.2233851390873996,0.9973845713424847
10.303434478159385,131.91730576858953,0.21095995364644782,0.9974654253643882
10.313437812604201,131.8706235411804,0.1972337762292781,0.9975439828995832
10.323441147049015,131.82394131377126,0.18227564745174152,0.9976203023331034
10.33344448149383,131.7772590863621,0.16616220395303477,0.9976944407845125
10.343447815938646,131.730576858953,0.148977293559303,0.9977664541286225
10.35345115038346,131.68389463154386,0.1308115459820545,0.9978363970160726
10.363454484828274,131.63721240413471,0.11176190120316803,0.9979043228937654
10.37345781927309,131.59053017672557,0.09193109795941613,0.9979702840251519
10.383461153717905,131.54384794931644,0.07142712498831652,0.998034331510363
10.39346448816272,131.49716572190732,0.050362637932319286,0.9980965153061813
10.403467822607535,131.45048349449817,0.028854345018692187,0.9981568842458467
10.41347115705235,131.40380126708902,0.007022364836130878,0.9982154860586949
10.423474491497165,131.3571190396799,-0.015010440284782461,0.9982723673896213
10.43347782594198,131.31043681227075,-0.03711915161329063,0.9983275738183687
10.443481160386796,131.2637545848616,-0.05917749826132697,0.9983811498786322
10.45348449483161,131.21707235745248,-0.08105857438066896,0.9984331390769814
10.463487829276424,131.17039013004336,-0.10263556526389979,0.998483583911593
10.47349116372124,131.1237079026342,-0.12378247821725079,0.9985325258907928
10.483494498166054,131.0770256752251,-0.14437487401594326,0.9985800055514036
10.493497832610869,131.03034344781594,-0.16429059471879573,0.998626062476896
10.503501167055685,130.98366122040682,-0.1834104836090636,0.9986707353153399
10.513504501500499,130.93697899299767,-0.2016190930436163,0.9987140617971545
10.523507835945313,130.89029676558854,-0.21880537603199993,0.9987560787526535
10.53351117039013,130.8436145381794,-0.23486335743075548,0.9987968221293859
10.543514504834944,130.79693231077027,-0.24969278072695408,0.9988363270092674
10.55351783927976,130.75025008336112,-0.2631997264970734,0.9988746276255043
10.563521173724574,130.70356785595197,-0.2752971987631749,0.9989117573793052
10.573524508169388,130.65688562854285,-0.2859056756272228,0.9989477488563815
10.583527842614204,130.61020340113373,-0.29495362074503095,0.9989826338432348
10.593531177059019,130.56352117372458,-0.30237795240358906,0.9990164433432305
10.603534511503835,130.51683894631543,-0.30812446718780506,0.9990492075924547
10.613537845948649,130.4701567189063,-0.31214821546401,0.9990809560753587
10.623541180393463,130.4234744914972,-0.3144138261668783,0.999111717540185
10.63354451483828,130.37679226408804,-0.3148957786519409,0.9991415200141776
10.643547849283093,130.3301100366789,-0.3135786196664676,0.9991703908185755
10.653551183727908,130.28342780926977,-0.3104571237953985,0.9991983565833906
10.663554518172724,130.23674558186062,-0.30553639605458144,0.9992254432619668
10.673557852617538,130.1900633544515,-0.29883191562911804,0.9992516761453245
10.683561187062352,130.14338112704235,-0.29036952008825573,0.9992770798762866
10.693564521507168,130.09669889963322,-0.2801853297481088,0.9993016784633906
10.703567855951983,130.05001667222407,-0.2683256121977265,0.999325495294584
10.713571190396799,130.00333444481493,-0.2548465873504266,0.9993485531507046
10.723574524841613,129.9566522174058,-0.2398141737292432,0.9993708742187467
10.733577859286427,129.90996998999668,-0.2233036770404104,0.9993924801049141
10.743581193731243,129.86328776258753,-0.20539942243033887,0.9994133918474603
10.753584528176058,129.81660553517838,-0.18619433215719217,0.9994336299293158
10.763587862620874,129.76992330776926,-0.16578945073629056,0.9994532142905074
10.773591197065688,129.7232410803601,-0.1442934199370113,0.9994721643403641
10.783594531510502,129.676558852951,-0.12182190631544636,0.9994904989695185
10.793597865955318,129.62987662554184,-0.09849698426082716,0.9995082365616976
10.803601200400132,129.58319439813272,-0.07444647781149676,0.999525395005311
10.813604534844947,129.5365121707236,-0.04980326475763992,0.9995419917048318
10.823607869289763,129.48982994331445,-0.024704546790545324,0.9995580435919769
10.833611203734577,129.4431477159053,0.0007089103194694583,0.9995735671366839
10.843614538179391,129.39646548849618,0.026293562333308602,0.9995885783578897
10.853617872624207,129.34978326108703,0.051903893580323726,0.9996030928341103
10.863621207069022,129.3031010336779,0.07739324090747302,0.9996171257138242
10.873624541513838,129.25641880626875,0.10261462989640721,0.99963069172566
10.883627875958652,129.20973657885963,0.1274216186016381,0.9996438051883935
10.893631210403466,129.16305435145048,0.15166914398723652,0.9996564800207505
10.903634544848282,129.11637212404133,0.17521436619058126,0.9996687297510229
10.913637879293097,129.0696898966322,0.19791750572137484,0.9996805675264955
10.923641213737913,129.0230076692231,0.21964266871172752,0.9996920061226886
10.933644548182727,128.97632544181394,0.2402586553688351,0.9997030579524162
10.943647882627541,128.92964321440482,0.25963974684646396,0.9997137350746632
10.953651217072357,128.88296098699567,0.27766646584373705,0.9997240492032825
10.963654551517171,128.83627875958655,0.29422630636008157,0.9997340117155151
10.973657885961986,128.7895965321774,0.3092144281829662,0.9997436336603345
10.983661220406802,128.74291430476825,0.3225343118592179,0.9997529257666175
10.993664554851616,128.69623207735913,0.3340983701008596,0.999761898451144
11.00366788929643,128.64954984995,0.3438285118013779,0.9997705618264281
11.013671223741246,128.60286762254086,0.3516566550868549,0.9997789257083803
11.02367455818606,128.5561853951317,0.3575251860974199,0.9997869996238072
11.033677892630877,128.50950316772258,0.36138736048647857,0.9997947928177462
11.043681227075691,128.46282094031343,0.3632076449364918,0.9998023142606411
11.053684561520505,128.4161387129043,0.36296199631921716,0.9998095726553582
11.063687895965321,128.36945648549516,0.36063807647338486,0.9998165764440461
11.073691230410136,128.32277425808604,0.3562354009318428,0.9998233338148416
11.083694564854952,128.2760920306769,0.34976542030138086,0.9998298527084233
11.093697899299766,128.22940980326774,0.34125153337952063,0.9998361408244152
11.10370123374458,128.18272757585862,0.33072903148152455,0.9998422056276421
11.113704568189396,128.1360453484495,0.3182449738454487,0.9998480543542401
11.12370790263421,128.08936312104035,0.3038579943809295,0.9998536940176224
11.133711237079025,128.0426808936312,0.2876380404264412,0.9998591314143045
11.14371457152384,127.99599866622208,0.2696660445775477,0.9998643731295898
11.153717905968655,127.94931643881294,0.25003353104278736,0.9998694255431171
11.16372124041347,127.90263421140381,0.2288421583722459,0.9998742948342745
11.173724574858285,127.85595198399467,0.20620320078408821,0.9998789869874781
11.1837279093031,127.80926975658554,0.1822369706839596,0.9998835077973209
11.193731243747916,127.76258752917639,0.15707218532939257,0.9998878628735923
11.20373457819273,127.71590530176726,0.13084528093374934,0.9998920576461703
11.213737912637544,127.66922307435811,0.1036996778294218,0.9998960973697884
11.22374124708236,127.622540846949,0.07578500061698076,0.9998999871286799
11.233744581527175,127.57585861953984,0.04725625751249656,0.9999037318411005
11.24374791597199,127.52917639213071,0.018272983368452286,0.9999073362637314
11.253751250416805,127.48249416472157,-0.011001648916986188,0.9999108049959657
11.26375458486162,127.43581193731245,-0.04040174367482469,0.9999141424840786
11.273757919306435,127.3891297099033,-0.06975961931039189,0.9999173530252842
11.28376125375125,127.34244748249418,-0.09890676144743624,0.9999204407716801
11.293764588196064,127.29576525508503,-0.12767478697194495,0.9999234097340826
11.30376792264088,127.2490830276759,-0.15589641347876482,0.9999262637857528
11.313771257085694,127.20240080026676,-0.183406428557768,0.9999290066660167
11.323774591530508,127.15571857285762,-0.2100426533220964,0.9999316419837802
11.333777925975324,127.10903634544849,-0.2356468945783271,0.9999341732209402
11.343781260420139,127.06235411803935,-0.26006588006890813,0.9999366037356966
11.353784594864955,127.01567189063022,-0.2831521712798312,0.9999389367657604
11.363787929309769,126.96898966322108,-0.30476504840118973,0.9999411754314675
11.373791263754583,126.92230743581194,-0.32477136215556657,0.9999433227387929
11.3837945981994,126.87562520840281,-0.3430463473672902,0.9999453815822714
11.393797932644214,126.82894298099367,-0.3594743933347111,0.9999473547478228
11.40380126708903,126.78226075358452,-0.3739497662866005,0.9999492449154871
11.413804601533844,126.7355785261754,-0.3863772794512265,0.999951054662066
11.423807935978658,126.68889629876625,-0.3966729065418019,0.999952786463678
11.433811270423474,126.64221407135712,-0.4047643347629811,0.9999544426982221
11.443814604868288,126.59553184394798,-0.41059145376872047,0.9999560256477573
11.453817939313103,126.54884961653886,-0.41410677734994567,0.9999575375007954
11.463821273757919,126.50216738912971,-0.4152757949995965,0.9999589803545096
11.473824608202733,126.45548516172059,-0.41407725089049957,0.9999603562168595
11.483827942647547,126.40880293431144,-0.4105033482060778,0.9999616670086355
11.493831277092363,126.36212070690232,-0.4045598771829117,0.9999629145654212
11.503834611537178,126.31543847949317,-0.39626626565528555,0.9999641006394762
11.513837945981994,126.26875625208402,-0.38565555133257223,0.9999652269015413
11.523841280426808,126.2220740246749,-0.37277427548833725,0.999966294942565
11.533844614871622,126.17539179726576,-0.3576822981924242,0.9999673062753535
11.543847949316438,126.12870956985662,-0.34045253567204103,0.9999682623361461
11.553851283761253,126.08202734244749,-0.321170620841615,0.9999691644861142
11.563854618206069,126.03534511503835,-0.29993448849197313,0.999970014012788
11.573857952650883,125.9886628876292,-0.27685388707421654,0.9999708121314087
11.583861287095697,125.94198066022008,-0.25204981944983307,0.99997155998621
11.593864621540513,125.89529843281093,-0.2256539154038801,0.9999722586516268
11.603867955985327,125.84861620540181,-0.19780773912968894,0.9999729091334334
11.613871290430142,125.80193397799268,-0.16866203528874735,0.9999735123698124
11.623874624874958,125.75525175058353,-0.13837591762678153,0.9999740692323534
11.633877959319772,125.70856952317439,-0.10711600448296016,0.9999745805269828
11.643881293764586,125.66188729576527,-0.07505550586230957,0.9999750469948256
11.653884628209402,125.61520506835612,-0.04237326704989705,0.9999754693129995
11.663887962654217,125.568522840947,-0.009252774026186994,0.9999758480953416
11.673891297099033,125.52184061353785,0.02411887380468828,0.9999761838930677
11.683894631543847,125.47515838612871,0.05755201783967328,0.9999764771953666
11.693897965988661,125.42847615871958,0.09085551553094195,0.9999767284299266
11.703901300433477,125.38179393131044,0.12383783058865361,0.9999769379633975
11.713904634878292,125.3351117039013,0.1563081319289926,0.9999771061017863
11.723907969323108,125.28842947649217,0.18807739507698834,0.9999772330907886
11.733911303767922,125.24174724908303,0.21895949968196415,0.9999773191160539
11.743914638212736,125.1950650216739,0.24877231678864117,0.9999773643033872
11.753917972657552,125.14838279426476,0.2773387795285048,0.9999773687188845
11.763921307102366,125.10170056685561,0.3044879309548119,0.999977332369005
11.77392464154718,125.05501833944649,0.33005594283972683,0.9999772552005775
11.783927975991997,125.00833611203734,0.3538870993837362,0.9999771371007437
11.793931310436811,124.96165388462822,0.3758347399550682,0.9999769778968352
11.803934644881625,124.91497165721908,0.3957621551792048,0.9999767773561865
11.813937979326441,124.86828942980995,0.413543430935261,0.9999765351858841
11.823941313771256,124.82160720240081,0.42906423508542646,0.9999762510324487
11.833944648216072,124.77492497499168,0.44222254206480427,0.9999759244814541
11.843947982660886,124.72824274758253,0.45292929078986716,0.9999755550570789
11.8539513171057,124.6815605201734,0.461108971703056,0.9999751422215946
11.863954651550516,124.63487829276426,0.46670013915652736,0.9999746853747857
11.87395798599533,124.58819606535512,0.4696558457478344,0.9999741838533049
11.883961320440147,124.54151383794598,0.46994399565202183,0.9999736369299602
11.893964654884961,124.49483161053685,0.4675476144459341,0.9999730438129365
11.903967989329775,124.44814938312771,0.4624650333889607,0.9999724036449478
11.913971323774591,124.40146715571858,0.4547099866073105,0.9999717155023222
11.923974658219405,124.35478492830944,0.4443116201235724,0.9999709783940186
11.93397799266422,124.30810270090032,0.43131441217682626,0.9999701912605727
11.943981327109036,124.26142047349117,0.415778004788347,0.9999693529729743
11.95398466155385,124.21473824608202,0.39777694704068683,0.999968462331473
11.963987995998664,124.1680560186729,0.3774003510508795,0.9999675180643137
11.97399133044348,124.12137379126375,0.354751462128929,0.9999665188263991
11.983994664888295,124.07469156385463,0.32994714511707335,0.9999654631978794
11.99399799933311,124.02800933644548,0.3031172894010416,0.9999643496826688
12.004001333777925,123.98132710903636,0.2744041355689183,0.9999631767068871
12.01400466822274,123.93464488162721,0.24396152716251257,0.9999619426172257
12.024008002667555,123.88796265421809,0.2119540914186303,0.999960645679238
12.03401133711237,123.84128042680894,0.1785563533299303,0.9999592840755508
12.044014671557186,123.7945981993998,0.14395178776444117,0.999957855903999
12.054018006002,123.74791597199066,0.10833181476748244,0.9999563591756804
12.064021340446814,123.70123374458153,0.07189474352644364,0.9999547918129289
12.07402467489163,123.6545515171724,0.03484467080621211,0.9999531516472074
12.084028009336444,123.60786928976326,-0.0026096600418842276,0.9999514364169171
12.094031343781259,123.56118706235412,-0.0402560331328943,0.9999496437651229
12.104034678226075,123.51450483494499,-0.07787996057208657,0.9999477712371937
12.114038012670889,123.46782260753585,-0.11526590266960476,0.999945816278356
12.124041347115703,123.42114038012672,-0.1521985009149124,0.9999437762311595
12.13404468156052,123.37445815271758,-0.18846381666804804,0.9999416483328534
12.144048016005334,123.32777592530844,-0.2238505684531343,0.9999394297126732
12.15405135045015,123.28109369789931,-0.25815136070899825,0.9999371173890338
12.164054684894964,123.23441147049017,-0.2911638968619472,0.9999347082666299
12.174058019339778,123.18772924308104,-0.3226921696377293,0.9999321991334426
12.184061353784594,123.14104701567189,-0.3525476216226254,0.9999295866576468
12.194064688229409,123.09436478826277,-0.3805502692178996,0.9999268673844244
12.204068022674225,123.04768256085362,-0.4065297833061612,0.9999240377326738
12.214071357119039,123.0010003334445,-0.4303265201622762,0.9999210939916215
12.224074691563853,122.95431810603534,-0.45179249639447316,0.9999180323173293
12.23407802600867,122.90763587862621,-0.4707923019909079,0.9999148487290972
12.244081360453483,122.86095365121707,-0.48720394587322885,0.9999115391057598
12.254084694898298,122.81427142380795,-0.5009196287186553,0.9999080991818761
12.264088029343114,122.7675891963988,-0.5118464382042721,0.9999045245438076
12.274091363787928,122.72090696898968,-0.5199069622499052,0.9999008106256874
12.284094698232742,122.67422474158053,-0.5250398162862364,0.9998969527052722
12.294098032677558,122.62754251417138,-0.5272000810504281,0.9998929458996844
12.304101367122373,122.58086028676226,-0.5263596479102133,0.999888785161032
12.314104701567189,122.53417805935311,-0.522507469235769,0.9998844652719129
12.324108036012003,122.48749583194399,-0.5156497118743559,0.9998799808407975
12.334111370456817,122.44081360453485,-0.5058098123323853,0.999875326297288
12.344114704901633,122.39413137712572,-0.49302843283017506,0.9998704958872539
12.354118039346448,122.34744914971658,-0.47736331796318393,0.9998654836678393
12.364121373791264,122.30076692230745,-0.4588890522762653,0.9998602835023442
12.374124708236078,122.2540846948983,-0.43769671963188217,0.999854889054972
12.384128042680892,122.20740246748917,-0.41389346582502945,0.999849293785446
12.394131377125708,122.16072024008002,-0.38760196646436657,0.999843490943491
12.404134711570522,122.11403801267089,-0.3589598026969268,0.9998374735631776
12.414138046015337,122.06735578526175,-0.3281187478994909,0.9998312344571283
12.424141380460153,122.02067355785262,-0.29524396899037336,0.9998247662105805
12.434144714904967,121.97399133044348,-0.26051314652757784,0.9998180611753095
12.444148049349781,121.92730910303436,-0.22411551824977563,0.9998111114634033
12.454151383794597,121.88062687562521,-0.18625085118296364,0.9998039089408921
12.464154718239412,121.83394464821609,-0.14712834787465254,0.9997964452212269
12.474158052684228,121.78726242080694,-0.1069654927262731,0.999788711658607
12.484161387129042,121.7405801933978,-0.06598684477127212,0.9997806993411541
12.494164721573856,121.69389796598867,-0.024422783587915615,0.9997723990839289
12.504168056018672,121.64721573857952,0.01749178465923718,0.9997638014217921
12.514171390463487,121.6005335111704,0.05951875378967763,0.9997548966021029
12.524174724908303,121.55385128376125,0.10141816930425954,0.999745674577256
12.534178059353117,121.50716905635213,0.1429495975416132,0.9997361249970548
12.544181393797931,121.46048682894299,0.18387350448674578,0.9997262372009158
12.554184728242747,121.41380460153385,0.22395263632926013,0.9997160002099078
12.564188062687561,121.3671223741247,0.26295339381938776,0.9997054027186164
12.574191397132376,121.32044014671558,0.3006471924660425,0.9996944330868381
12.584194731577192,121.27375791930643,0.33681180066272426,0.9996830793310988
12.594198066022006,121.22707569189731,0.37123264791577465,0.9996713291159943
12.60420140046682,121.18039346448818,0.4037040954829069,0.9996591697453533
12.614204734911636,121.13371123707903,0.4340306619089822,0.9996465881532176
12.62420806935645,121.08702900966989,0.46202819616954754,0.9996335708946409
12.634211403801267,121.04034678226076,0.4875249913991214,0.9996201041363005
12.644214738246081,120.99366455485162,0.5103628324898193,0.999606173646924
12.654218072690895,120.9469823274425,0.5303979711951627,0.9995917647875253
12.664221407135711,120.90030010003335,0.5475020227610681,0.9995768625014516
12.674224741580526,120.85361787262421,0.5615627785303586,0.9995614513042362
12.684228076025342,120.80693564521508,0.5724849294253332,0.9995455152732577
12.694231410470156,120.76025341780594,0.5801906957027209,0.9995290380372029
12.70423474491497,120.7135711903968,0.5846203588946127,0.999512002765332
12.714238079359786,120.66688896298766,0.5857326923939603,0.999494392156544
12.7242414138046,120.62020673557853,0.5835052877116048,0.9994761884282414
12.734244748249415,120.57352450816938,0.5779347740200801,0.9994573733049918
12.74424808269423,120.52684228076026,0.5690369292042664,0.9994379280069859
12.754251417139045,120.48016005335111,0.5568466812571693,0.9994178332382899
12.76425475158386,120.43347782594199,0.5414179994867909,0.9993970691748908
12.774258086028675,120.38679559853284,0.5228236756340275,0.9993756154525333
12.78426142047349,120.34011337112372,0.5011549956378559,0.9993534511543484
12.794264754918306,120.29343114371457,0.4765213034191352,0.9993305547982706
12.80426808936312,120.24674891630545,0.4490494586846051,0.9993069043242438
12.814271423807934,120.2000666888963,0.41888319137421753,0.9992824770812146
12.82427475825275,120.15338446148716,0.3861823559843884,0.9992572498139127
12.834278092697565,120.10670223407803,0.3511220895931501,0.9992311986494168
12.84428142714238,120.06002000666888,0.31389187798753443,0.9992042990835048
12.854284761587195,120.01333777925976,0.27469453484486434,0.9991765259667915
12.86428809603201,119.96665555185062,0.23374509944498353,0.9991478534906454
12.874291430476825,119.91997332444149,0.19126965888672806,0.9991182551728947
12.88429476492164,119.87329109703235,0.1475041012455957,0.9990877038433124
12.894298099366454,119.82660886962321,0.10269280653856044,0.9990561716288873
12.90430143381127,119.77992664221408,0.0570872827530732,0.9990236299388765
12.914304768256084,119.73324441480494,0.010944754547951008,0.9989900494496425
12.924308102700898,119.68656218739581,-0.035473287457426575,0.9989554000892733
12.934311437145714,119.63987995998667,-0.08190256862506819,0.9989196510219855
12.944314771590529,119.59319773257752,-0.12807753507316097,0.9988827706323141
12.954318106035345,119.54651550516839,-0.1737328727147547,0.9988447265090842
12.964321440480159,119.49983327775925,-0.218605031869715,0.9988054854291714
12.974324774924973,119.45315105035013,-0.26243374868790015,0.9987650133410463
12.98432810936979,119.40646882294098,-0.3049635545992954,0.9987232753481093
12.994331443814604,119.35978659553186,-0.34594526503657286,0.998680235691812
13.00433477825942,119.31310436812271,-0.38513743875551093,0.9986358577345705
13.014338112704234,119.26642214071359,-0.4223077992087449,0.9985901039424707
13.024341447149048,119.21973991330444,-0.4572346096095388,0.9985429358677662
13.034344781593864,119.1730576858953,-0.4897079935515574,0.998494314131173
13.044348116038678,119.12637545848617,-0.519531193328576,0.9984441984039611
13.054351450483493,119.07969323107703,-0.5465217584227422,0.998392547389848
13.064354784928309,119.0330110036679,-0.5705126569993842,0.9983393188066908
13.074358119373123,118.98632877625876,-0.5913533036590419,0.9982844693679885
13.084361453817937,118.93964654884962,-0.6089104971510316,0.9982279547641892
13.094364788262753,118.89296432144049,-0.6230692622446717,0.9981697296438089
13.104368122707568,118.84628209403135,-0.6337335904820368,0.9981097475943655
13.114371457152384,118.7995998666222,-0.6408270750967904,0.9980479611231314
13.124374791597198,118.75291763921308,-0.6442934359737493,0.9979843216377062
13.134378126042012,118.70623541180395,-0.6440969311408057,0.9979187794264169
13.144381460486828,118.65955318439481,-0.6402226519244585,0.9978512836385472
13.154384794931643,118.61287095698566,-0.6326766995594657,0.9977817822644016
13.164388129376459,118.56618872957652,-0.6214862417178699,0.9977102221152084
13.174391463821273,118.51950650216739,-0.6066994481093677,0.9976365488028669
13.184394798266087,118.47282427475827,-0.5883853049994052,0.9975607067195443
13.194398132710903,118.42614204734912,-0.5666333091899673,0.9974826390171263
13.204401467155717,118.37945981993998,-0.541553042706092,0.9974022875865294
13.214404801600532,118.33277759253085,-0.5132736301254411,0.9973195930368783
13.224408136045348,118.28609536512171,-0.48194308117404744,0.9972344946745572
13.234411470490162,118.23941313771257,-0.44772752188497783,0.9971469304821384
13.244414804934976,118.19273091030345,-0.41081031827416925,0.9970568370971994
13.254418139379792,118.1460486828943,-0.37139109712506485,0.9969641497910304
13.264421473824607,118.09936645548517,-0.3296846690872537,0.9968688024472435
13.274424808269423,118.05268422807603,-0.285919859880118,0.9967707275402896
13.284428142714237,118.00600200066688,-0.2403382559481899,0.9966698561138918
13.294431477159051,117.95931977325776,-0.19319287143443234,0.9965661177594011
13.304434811603867,117.91263754584861,-0.14474674382213332,0.9964594405940869
13.314438146048682,117.86595531843949,-0.09527146603773787,0.9963497512393682
13.324441480493498,117.81927309103034,-0.045045663206782376,0.9962369747989949
13.334444814938312,117.77259086362122,0.005646577391087862,0.9961210348371901
13.344448149383126,117.72590863621208,0.056517314316585444,0.9960018533567622
13.354451483827942,117.67922640880295,0.10727638880700441,0.9958793507771966
13.364454818272756,117.6325441813938,0.15763308114257282,0.9957534459127378
13.37445815271757,117.58586195398468,0.20729777708041297,0.9956240559504742
13.384461487162387,117.53917972657553,0.25598363479479447,0.9954910964284328
13.394464821607201,117.49249749916639,0.30340824272330885,0.9953544812137001
13.404468156052015,117.44581527175725,0.34929525872772127,0.9952141224805761
13.414471490496831,117.39913304434812,0.39337602105011304,0.9950699306887781
13.424474824941646,117.35245081693898,0.4353911216688905,0.9949218145617034
13.434478159386462,117.30576858952985,0.47509193283263473,0.9947696810647637
13.444481493831276,117.25908636212071,0.5122420777928877,0.9946134353838083
13.45448482827609,117.21240413471159,0.5466188370316046,0.9944529809036434
13.464488162720906,117.16572190730244,0.5780144816248892,0.9942882191866662
13.47449149716572,117.1190396798933,0.6062375257656473,0.9941190499516267
13.484494831610537,117.07235745248417,0.6311138909044521,0.9939453710525296
13.494498166055351,117.02567522507502,0.6524879744523617,0.9937670784576945
13.504501500500165,116.9789929976659,0.6702236165049559,0.9935840662289865
13.514504834944981,116.93231077025675,0.6842049586051987,0.9933962265012352
13.524508169389795,116.88562854284763,0.6943371891897613,0.9932034494618556
13.53451150383461,116.83894631543849,0.7005471709517138,0.9930056233306902
13.544514838279426,116.79226408802936,0.7027839460514449,0.9928026343400849
13.55451817272424,116.7455818606202,0.7010191157907638,0.9925943667152203
13.564521507169054,116.69889963321108,0.6952470920622141,0.9923807026547102
13.57452484161387,116.65221740580193,0.6854852185995289,0.9921615223114909
13.584528176058685,116.60553517839281,0.6717737609046318,0.9919367037740142
13.5945315105035,116.55885295098366,0.6541757642653518,0.9917061230477646
13.604534844948315,116.51217072357453,0.6327767803095957,0.9914696540371205
13.61453817939313,116.46548849616539,0.607684463049375,0.9912271685275753
13.624541513837945,116.41880626875626,0.579028036345953,0.9909785361683401
13.63454484828276,116.37212404134712,0.5469576352093545,0.9907236244553476
13.644548182727576,116.32544181393797,0.51164352448319,0.9904622987146748
13.65455151717239,116.27875958652885,0.4732751986472285,0.9901944220864081
13.664554851617204,116.23207735911971,0.4320603677605234,0.9899198555089682
13.67455818606202,116.18539513171058,0.388223834756182,0.9896384577039187
13.684561520506834,116.13871290430144,0.34200627019078456,0.9893500851612765
13.694564854951649,116.0920306768923,0.29366289117004507,0.9890545921253475
13.704568189396465,116.04534844948316,0.24346205165924342,0.9887518305811096
13.714571523841279,115.99866622207402,0.19168375196844134,0.9884416502411639
13.724574858286093,115.9519839946649,0.1386180756938739,0.9881238985332761
13.73457819273091,115.90530176725575,0.0845635627852577,0.9877984205885325
13.744581527175724,115.85861953984663,0.029825527986319614,0.9874650592301328
13.75458486162054,115.81193731243748,-0.025285665836202006,0.9871236549628413
13.764588196065354,115.76525508502834,-0.0804563699582324,0.9867740459631216
13.774591530510168,115.71857285761922,-0.13537143729683773,0.9864160680699784
13.784594864954984,115.67189063021007,-0.18971602518014255,0.9860495547765297
13.794598199399799,115.62520840280094,-0.24317740320553854,0.9856743372223327
13.804601533844615,115.5785261753918,-0.29544675493655054,0.9852902441864894
13.814604868289429,115.53184394798267,-0.34622096472998265,0.9848971020815551
13.824608202734243,115.48516172057353,-0.39520437669170333,0.9844947349482756
13.83461153717906,115.4384794931644,-0.44211051928602985,0.9840829644511755
13.844614871623873,115.39179726575526,-0.4866637813289972,0.9836616098750267
13.854618206068688,115.34511503834612,-0.5286010329088007,0.983230488122218
13.864621540513504,115.29843281093699,-0.5676731800537627,0.9827894137110535
13.874624874958318,115.25175058352785,-0.6036466430689005,0.9823381987750062
13.884628209403132,115.20506835611872,-0.6363047536573426,0.9818766530629474
13.894631543847948,115.15838612870958,-0.6654490581298959,0.9814045839403852
13.904634878292763,115.11170390130044,-0.6909005193599553,0.9809217963917308
13.914638212737579,115.0650216738913,-0.7125006122933728,0.9804280930236224
13.924641547182393,115.01833944648216,-0.7301123106839034,0.9799232740693304
13.934644881627207,114.97165721907302,-0.7436209413705488,0.9794071373942722
13.944648216072023,114.92497499166389,-0.7529349267871926,0.9788794785026598
13.954651550516838,114.87829276425475,-0.7579863865866263,0.9783400905453081
13.964654884961654,114.83161053684562,-0.7587316145375849,0.9777887643286288
13.974658219406468,114.78492830943648,-0.7551514077114946,0.9772252883248358
13.984661553851282,114.73824608202735,-0.7472512644776275,0.9766494486833891
13.994664888296098,114.69156385461821,-0.7350614439344146,0.9760610292437003
14.004668222740912,114.64488162720907,-0.7186368593609282,0.9754598115491294
14.014671557185727,114.59819939979994,-0.698056874942861,0.9748455748622936
14.024674891630543,114.5515171723908,-0.6734249020097312,0.9742180961817178
14.034678226075357,114.50483494498167,-0.6448679265264656,0.9735771502598506
14.044681560520171,114.45815271757253,-0.6125358208412356,0.9729225096224682
14.054684894964987,114.4114704901634,-0.5766005865759342,0.9722539445894968
14.064688229409802,114.36478826275426,-0.5372554310906846,0.9715712232972734
14.074691563854618,114.31810603534512,-0.49471374173106986,0.97087411172227
14.084694898299432,114.27142380793599,-0.44920793309228274,0.9701623737063098
14.094698232744246,114.22474158052685,-0.4009881490909697,0.9694357709832921
14.104701567189062,114.17805935311772,-0.35032090397011506,0.9686940632074572
14.114704901633877,114.13137712570858,-0.2974875964911014,0.967937007983209
14.124708236078693,114.08469489829943,-0.24278304110339732,0.9671643608965205
14.134711570523507,114.0380126708903,-0.18651362617891348,0.966375875547946
14.144714904968321,113.99133044348116,-0.1289957490873456,0.9655713035872592
14.154718239413137,113.94464821607203,-0.07055402013112513,0.9647503947497411
14.164721573857951,113.89796598866289,-0.011519362719328529,0.9639128968941414
14.174724908302766,113.85128376125375,0.0477727811236668,0.9630585560423269
14.184728242747582,113.80460153384462,0.10698447995972296,0.9621871164206464
14.194731577192396,113.75791930643548,0.16577714765810408,0.9612983205030258
14.20473491163721,113.71123707902635,0.22381342279643296,0.9603919090558142
14.214738246082026,113.66455485161721,0.28075934584191586,0.9594676211844018
14.22474158052684,113.61787262420808,0.33628597715428843,0.9585251943816253
14.234744914971657,113.57119039679894,0.39007156838779933,0.9575643645779798
14.244748249416471,113.5245081693898,0.44180317797810875,0.9565848661936532
14.254751583861285,113.47782594198067,0.49117883177088845,0.9555864321924007
14.264754918306101,113.43114371457152,0.5379089724143362,0.954568794137273
14.274758252750916,113.3844614871624,0.5817182243017979,0.9535316822482166
14.284761587195732,113.33777925975325,0.6223470507490515,0.952474825461554
14.294764921640546,113.29109703234411,0.6595536132735799,0.951397951491366
14.30476825608536,113.24441480493499,0.6931145970780805,0.9503007868927783
14.314771590530176,113.19773257752584,0.7228268277372027,0.9491830571271737
14.32477492497499,113.15105035011672,0.7485090191127399,0.9480444866293347
14.334778259419805,113.10436812270758,0.7700014308077118,0.9468847988765279
14.34478159386462,113.05768589529843,0.7871689634126277,0.9457037164595392
14.354784928309435,113.0110036678893,0.7998999096498538,0.9445009611556702
14.36478826275425,112.96432144048016,0.8081084162916143,0.9432762540036981
14.374791597199065,112.91763921307103,0.8117336839027101,0.9420293153808093
14.38479493164388,112.87095698566189,0.8107413344321823,0.9407598650815114
14.394798266088696,112.82427475825276,0.8051225150745072,0.9394676223985249
14.40480160053351,112.77759253084362,0.7948966094314391,0.9381523062056603
14.414804934978324,112.73091030343448,0.7801065169130829,0.936813635042681
14.42480826942314,112.68422807602535,0.7608252653656421,0.935451327202155
14.434811603867955,112.63754584861621,0.7371478530263647,0.9340651008182912
14.44481493831277,112.59086362120708,0.7091972566875586,0.9326546739577619
14.454818272757585,112.54418139379794,0.6771216973073029,0.9312197647125089
14.4648216072024,112.4974991663888,0.6410901179642877,0.9297600912945251
14.474824941647215,112.45081693897966,0.6012974802158121,0.9282753721326121
14.48482827609203,112.40413471157052,0.5579607575464074,0.9267653259711052
14.494831610536844,112.3574524841614,0.5113185544443511,0.9252296719705534
14.50483494498166,112.31077025675225,0.4616237925062448,0.9236681298103536
14.514838279426474,112.26408802934313,0.4091565147643422,0.922080419793323
14.524841613871288,112.21740580193399,0.35420326328864876,0.9204662629521979
14.534844948316104,112.17072357452484,0.29707616885197075,0.9188253811580495
14.544848282760919,112.12404134711572,0.2380903337730641,0.9171574972305986
14.554851617205735,112.07735911970657,0.17758208453022997,0.9154623350504139
14.564854951650549,112.03067689229744,0.11589287103217864,0.9137396196729793
14.574858286095363,111.9839946648883,0.05336676125243019,0.911989077444607
14.58486162054018,111.93731243747916,-0.009643787832890941,0.9102104361201788
14.594864954984994,111.89063021007003,-0.07277026585837103,0.9084034249826961
14.60486828942981,111.8439479826609,-0.13566176294744595,0.9065677749646076
14.614871623874624,111.79726575525176,-0.197944172286936,0.9047032187709004
14.624874958319438,111.75058352784262,-0.25927241048635497,0.9028094910039183
14.634878292764254,111.70390130043349,-0.31930153884626883,0.9008863282898859
14.644881627209068,111.65721907302435,-0.3776677315305986,0.898933469407109
14.654884961653883,111.61053684561521,-0.434033218433627,0.8969506554158138
14.664888296098699,111.56385461820608,-0.4880882881806277,0.8949376297896
14.674891630543513,111.51717239079694,-0.5394973508579922,0.892894138548473
14.684894964988327,111.47049016338781,-0.5879637169929044,0.8908199303934109
14.694898299433143,111.42380793597866,-0.6332254828104757,0.8887147568424402
14.704901633877958,111.37712570856952,-0.6749883469015017,0.8865783723681765
14.714904968322774,111.33044348116039,-0.7130037212566555,0.8844105345367849
14.724908302767588,111.28376125375125,-0.7470843362204626,0.8822110041483286
14.734911637212402,111.23707902634212,-0.7769735743388045,0.8799795453784505
14.744914971657218,111.19039679893298,-0.8025259380669029,0.877715925921351
14.754918306102033,111.14371457152384,-0.8235752570065419,0.8754199171340123
14.764921640546849,111.09703234411471,-0.8399313937417551,0.8730912941816159
14.774924974991663,111.05035011670557,-0.851638112651112,0.8707298361841129
14.784928309436477,111.00366788929644,-0.8584352408951058,0.8683353263638848
14.794931643881293,110.9569856618873,-0.8604160792194059,0.8659075521944475
14.804934978326107,110.91030343447817,-0.8574612121162507,0.8634463055501456
14.814938312770922,110.86362120706903,-0.8496338370074034,0.8609513828567693
14.824941647215738,110.8169389796599,-0.8368963245490183,0.8584225852430502
14.834944981660552,110.77025675225076,-0.8193604549267085,0.8558597186929655
14.844948316105366,110.72357452484162,-0.7970991612277452,0.8532625941987926
14.854951650550182,110.67689229743249,-0.770418339296623,0.850631027914851
14.864954984994997,110.63021007002335,-0.7390367600721552,0.8479648413118717
14.874958319439813,110.58352784261422,-0.7034998047782556,0.8452638613319148
14.884961653884627,110.53684561520508,-0.6638469019670326,0.8425279205437856
14.894964988329441,110.49016338779595,-0.6202642596575478,0.8397568572988641
14.904968322774257,110.4434811603868,-0.5730470974100356,0.8369505158872879
14.914971657219072,110.39679893297766,-0.5224974190080056,0.8341087466944137
14.924974991663888,110.35011670556852,-0.4688122283099615,0.8312314063574778
14.934978326108702,110.30343447815939,-0.41209979363641663,0.8283183579223936
14.944981660553516,110.25675225075025,-0.3533581795087574,0.8253694710005949
14.954984994998332,110.21007002334112,-0.2922067384697554,0.8223846219258604
14.964988329443146,110.16338779593198,-0.2294872229924117,0.8193636939110347
14.97499166388796,110.11670556852285,-0.16475789747523353,0.816306577204561
14.984994998332777,110.07002334111371,-0.09954643200353512,0.8132131692467542
14.994998332777591,110.02334111370457,-0.03327191691201299,0.8100833748257256
15.005001667222405,109.97665888629544,0.033124669712940855,0.8069171062328735
15.015005001667221,109.9299766588863,0.09978004140125135,0.8037142834178589
15.025008336112036,109.88329443147717,0.16565338248755748,0.8004748341429815
15.035011670556852,109.83661220406803,0.23082662080916377,0.7971986941368593
15.045015005001666,109.7899299766589,0.29489124625572016,0.7938858072473366
15.05501833944648,109.74324774924976,0.3578010290756833,0.7905361255935189
15.065021673891296,109.69656552184061,0.4186432338832484,0.7871496097168539
15.07502500833611,109.64988329443149,0.4773977772924331,0.7837262287311626
15.085028342780927,109.60320106702234,0.5337327075082734,0.780265960471526
15.095031677225741,109.5565188396132,0.5868679531192704,0.7767687916419429
15.105035011670555,109.50983661220408,0.6352874260154581,0.7732347179616551
15.115038346115371,109.46315438479493,0.681427432410967,0.7696637443100527
15.125041680560185,109.4164721573858,0.7248190981949614,0.7660558848700642
15.135045015005,109.36978992997668,0.7620538979956445,0.762411163269927
15.145048349449816,109.32310770256753,0.7977728816230536,0.7587296127232552
15.15505168389463,109.27642547515839,0.8274661122133357,0.7550112761672999
15.165055018339444,109.22974324774927,0.8506263160251099,0.7512562063993015
15.17505835278426,109.1830610203401,0.872607062978318,0.7474644662108457
15.185061687229075,109.13637879293098,0.8887996236527266,0.7436361285201212
15.19506502167389,109.08969656552185,0.8979842273300903,0.7397712765019729
15.205068356118705,109.0430143381127,0.9021961124056509,0.7358700037156698
15.21507169056352,108.99633211070358,0.902408650875979,0.7319324142302667
15.225075025008335,108.94964988329444,0.8983829323463323,0.7279586227474815
15.23507835945315,108.9029676558853,0.8860389452358484,0.7239487547219782
15.245081693897966,108.85628542847616,0.8727818054975954,0.7199029464789541
15.25508502834278,108.80960320106703,0.8513210868785964,0.7158213453289457
15.265088362787594,108.7629209736579,0.8249079069688608,0.7117041096797379
15.27509169723241,108.71623874624875,0.7942095210181617,0.7075514091452928
15.285095031677224,108.66955651883961,0.7637471809414803,0.7033634246515944
15.295098366122039,108.62287429143049,0.720482941716031,0.6991403485393054
15.305101700566855,108.57619206402134,0.6808306616864541,0.6948823846631508
15.315105035011669,108.5295098366122,0.6263342918956164,0.6905897484879266
15.325108369456483,108.48282760920308,0.5814142150349021,0.6862626671810295
15.3351117039013,108.43614538179393,0.5284294553510889,0.6819013797014274
15.345115038346114,108.3894631543848,0.472256468615455,0.677506136884966
15.35511837279093,108.34278092697566,0.4152219218603321,0.6730772015259158
15.365121707235744,108.29609869956653,0.35076480006424154,0.6686148484546784
15.375125041680558,108.24941647215739,0.28653705486032677,0.6641193646115441
15.385128376125374,108.20273424474826,0.21512114236247068,0.6595910491164232
15.395131710570189,108.1560520173391,0.14192728712062017,0.6550302133344574
15.405135045015005,108.10936978992997,0.07165627618081861,0.6504371809374145
15.415138379459819,108.06268756252085,0.0048282079914683355,0.6458122879607952
15.425141713904633,108.0160053351117,-0.05640510180640829,0.641155882856546
15.43514504834945,107.96932310770256,-0.11833634680947608,0.6364683265413119
15.445148382794263,107.92264088029344,-0.19300076829185503,0.631749992440138
15.455151717239078,107.87595865288431,-0.26201737582040724,0.6270012665255295
15.465155051683894,107.82927642547516,-0.32160568422829283,0.6222225473518082
15.475158386128708,107.78259419806604,-0.39931605617225946,0.6174142460846752
15.485161720573522,107.7359119706569,-0.4551192563930516,0.6125767865259009
15.495165055018338,107.68922974324775,-0.5190768425330613,0.6077106051330772
15.505168389463153,107.64254751583861,-0.571194272223619,0.6028161510343564
15.515171723907969,107.59586528842948,-0.6321709160201588,0.597893886038095
15.525175058352783,107.54918306102034,-0.7026877476118848,0.5929442846373552
15.535178392797597,107.50250083361121,-0.7330164728329653,0.5879678340091722
15.545181727242413,107.45581860620207,-0.7853326928364701,0.5829650340085443
15.555185061687228,107.40913637879294,-0.7665898934718401,0.5779363971570761
15.565188396132044,107.3624541513838,-0.8047600991660184,0.5728824486262042
15.575191730576858,107.31577192397467,-0.8854108302971369,0.5678037262149724
15.585195065021672,107.26908969656553,-0.9173568008578075,0.5627007803222741
